#    [ 1422 :  6 :   5 ]    14 -  27
# Energy and angle distribution
#           NK            22  number of subsections

#   Subsection             0
#          ZAP             1
#          LIP             0  product modifier
#          LAW             1  distribution law
#           NP            67  yield energy points
#   Energy[eV]  CrossSec [b]  Multiplicity  CrossSec x M
 7.4640000e+06 0.0000000e+00 0.0000000e+00 0.0000000e+00
 1.3311800e+07 1.6107400e-03 0.0000000e+00 0.0000000e+00
 1.3500000e+07 1.7439800e-03 1.2555670e-03 2.1896837e-06
 1.4000000e+07 2.2099560e-03 2.9422250e-03 6.5021878e-06
 1.5000000e+07 3.6871630e-03 3.3672680e-03 1.2415666e-05
 1.6000000e+07 6.5990690e-03 1.2501810e-02 8.2500307e-05
 1.6500000e+07 9.1456990e-03 1.6644540e-02 1.5222595e-04
 1.7000000e+07 1.3024140e-02 1.8850000e-02 2.4550504e-04
 1.7500000e+07 1.8967770e-02 2.1618810e-02 4.1006062e-04
 1.8000000e+07 2.7505280e-02 2.4048980e-02 6.6147393e-04
 1.8500000e+07 3.7271800e-02 2.8070260e-02 1.0462291e-03
 1.9000000e+07 4.4708570e-02 3.7922490e-02 1.6954603e-03
 1.9500000e+07 4.9578530e-02 4.8608200e-02 2.4099231e-03
 2.0000000e+07 5.3552570e-02 5.8751960e-02 3.1463185e-03
 2.0500000e+07 5.4468760e-02 6.8333620e-02 3.7220475e-03
 2.1000000e+07 5.0259160e-02 7.7954580e-02 3.9179317e-03
 2.1500000e+07 4.2972660e-02 8.3938880e-02 3.6070770e-03
 2.2000000e+07 3.5718090e-02 9.5168090e-02 3.3992224e-03
 2.2500000e+07 2.9955400e-02 1.0709620e-01 3.2081095e-03
 2.3000000e+07 2.5873610e-02 1.2016730e-01 3.1091619e-03
 2.3500000e+07 2.3233740e-02 1.3360280e-01 3.1040927e-03
 2.4000000e+07 2.1746820e-02 1.4787750e-01 3.2158654e-03
 2.4500000e+07 2.1151870e-02 1.6250990e-01 3.4373883e-03
 2.5000000e+07 2.1188900e-02 1.7786020e-01 3.7686620e-03
 2.5500000e+07 2.1541920e-02 1.9353680e-01 4.1691543e-03
 2.6000000e+07 2.1846940e-02 2.0995290e-01 4.5868284e-03
 2.7000000e+07 2.1135970e-02 2.4555440e-01 5.1900304e-03
 2.8000000e+07 1.8552980e-02 2.8591330e-01 5.3045437e-03
 2.9000000e+07 1.5488990e-02 3.2790340e-01 5.0788925e-03
 3.0000000e+07 1.2880000e-02 3.6888930e-01 4.7512942e-03
 3.1000000e+07 1.0887000e-02 4.0957840e-01 4.4590800e-03
 3.2000000e+07 9.3983990e-03 4.5125450e-01 4.2410698e-03
 3.3000000e+07 8.2768990e-03 4.9386650e-01 4.0876831e-03
 3.4000000e+07 7.4155000e-03 5.3650990e-01 3.9784892e-03
 3.5000000e+07 6.7399000e-03 5.7800880e-01 3.8957215e-03
 3.6000000e+07 6.1991000e-03 6.1785270e-01 3.8301307e-03
 3.7000000e+07 5.7583000e-03 6.5818190e-01 3.7900088e-03
 3.8000000e+07 5.3931000e-03 7.0279260e-01 3.7902308e-03
 3.9000000e+07 5.0863000e-03 7.5296800e-01 3.8298211e-03
 4.0000000e+07 4.8252000e-03 8.0725830e-01 3.8951827e-03
 4.2000000e+07 4.4052000e-03 9.1879230e-01 4.0474638e-03
 4.4000000e+07 4.0825000e-03 1.0220740e+00 4.1726171e-03
 4.6000000e+07 3.8268000e-03 1.1098600e+00 4.2472122e-03
 4.8000000e+07 3.6188000e-03 1.1889310e+00 4.3025035e-03
 5.0000000e+07 3.4459000e-03 1.2920780e+00 4.4523716e-03
 5.2000000e+07 3.3001000e-03 1.3825720e+00 4.5626259e-03
 5.4000000e+07 3.1735000e-03 1.4753610e+00 4.6820581e-03
 5.6000000e+07 3.0633000e-03 1.5653420e+00 4.7951121e-03
 5.8000000e+07 2.9663000e-03 1.6488540e+00 4.8909956e-03
 6.0000000e+07 2.8796000e-03 1.7240080e+00 4.9644534e-03
 6.2000000e+07 2.8009000e-03 1.7902540e+00 5.0143224e-03
 6.4000000e+07 2.7295000e-03 1.8484300e+00 5.0452897e-03
 6.6000000e+07 2.6638000e-03 1.9010640e+00 5.0640543e-03
 6.8000000e+07 2.6033000e-03 1.9509960e+00 5.0790279e-03
 7.0000000e+07 2.5468000e-03 2.0191550e+00 5.1423840e-03
 7.5000000e+07 2.4208000e-03 2.1397520e+00 5.1799116e-03
 8.0000000e+07 2.3110000e-03 2.2607970e+00 5.2247019e-03
 8.5000000e+07 2.2135000e-03 2.3759690e+00 5.2592074e-03
 9.0000000e+07 2.1258000e-03 2.4784650e+00 5.2687209e-03
 9.5000000e+07 2.0460000e-03 2.5874470e+00 5.2939166e-03
 1.0000000e+08 1.9724000e-03 2.6799830e+00 5.2859985e-03
 1.0500000e+08 1.9046000e-03 2.7755920e+00 5.2863925e-03
 1.1000000e+08 1.8416000e-03 2.8709110e+00 5.2870697e-03
 1.1500000e+08 1.7830000e-03 2.9613300e+00 5.2800514e-03
 1.2000000e+08 1.7284000e-03 3.0585190e+00 5.2863442e-03
 1.3000000e+08 1.6296000e-03 3.1998270e+00 5.2144381e-03
 1.4000000e+08 1.5430000e-03 3.3228930e+00 5.1272239e-03


#           NR             1
#           NE            67
#         LANG             2  1: Legendre, 2:KM systematics, 11-15: tabulated
#          LEP             1  secondary energy interpolation
#           E1 7.4640000e+06  incident energy
#          NEP             2  number of secondary energy points
#           ND             0  number of discrete lines
#           NA             1  number of angular parameters
# Energy       PL( 0)        PL( 1)       
 0.0000000e+00 1.0000000e+05 0.0000000e+00
 1.0000000e-05 0.0000000e+00 0.0000000e+00


#           E1 1.3311800e+07  incident energy
#          NEP             2  number of secondary energy points
#           ND             0  number of discrete lines
#           NA             1  number of angular parameters
# Energy       PL( 0)        PL( 1)       
 0.0000000e+00 1.0000000e+05 0.0000000e+00
 1.0000000e-05 0.0000000e+00 0.0000000e+00


#           E1 1.3500000e+07  incident energy
#          NEP             2  number of secondary energy points
#           ND             0  number of discrete lines
#           NA             1  number of angular parameters
# Energy       PL( 0)        PL( 1)       
 0.0000000e+00 1.3850750e-06 0.0000000e+00
 7.2198260e+05 0.0000000e+00 0.0000000e+00


#           E1 1.4000000e+07  incident energy
#          NEP             2  number of secondary energy points
#           ND             0  number of discrete lines
#           NA             1  number of angular parameters
# Energy       PL( 0)        PL( 1)       
 0.0000000e+00 1.3850750e-06 0.0000000e+00
 7.2198260e+05 0.0000000e+00 0.0000000e+00


#           E1 1.5000000e+07  incident energy
#          NEP             4  number of secondary energy points
#           ND             0  number of discrete lines
#           NA             1  number of angular parameters
# Energy       PL( 0)        PL( 1)       
 0.0000000e+00 0.0000000e+00 0.0000000e+00
 7.2198260e+05 0.0000000e+00 0.0000000e+00
 1.2033040e+06 2.0776130e-06 1.5530000e-01
 1.6846260e+06 0.0000000e+00 0.0000000e+00


#           E1 1.6000000e+07  incident energy
#          NEP             6  number of secondary energy points
#           ND             0  number of discrete lines
#           NA             1  number of angular parameters
# Energy       PL( 0)        PL( 1)       
 0.0000000e+00 0.0000000e+00 0.0000000e+00
 7.2198260e+05 1.6149310e-06 1.0770000e-01
 1.2033040e+06 0.0000000e+00 0.0000000e+00
 1.6846260e+06 0.0000000e+00 0.0000000e+00
 2.1659470e+06 4.6268140e-07 2.0940000e-01
 2.6472690e+06 0.0000000e+00 0.0000000e+00


#           E1 1.6500000e+07  incident energy
#          NEP             7  number of secondary energy points
#           ND             0  number of discrete lines
#           NA             1  number of angular parameters
# Energy       PL( 0)        PL( 1)       
 0.0000000e+00 3.4167400e-07 1.2280000e-01
 7.2198260e+05 0.0000000e+00 0.0000000e+00
 1.2033040e+06 1.2499780e-06 1.3150000e-01
 1.6846260e+06 0.0000000e+00 0.0000000e+00
 2.1659470e+06 0.0000000e+00 0.0000000e+00
 2.6472690e+06 3.1512360e-07 2.3220000e-01
 3.1285910e+06 0.0000000e+00 0.0000000e+00


#           E1 1.7000000e+07  incident energy
#          NEP             8  number of secondary energy points
#           ND             0  number of discrete lines
#           NA             1  number of angular parameters
# Energy       PL( 0)        PL( 1)       
 0.0000000e+00 3.9466130e-08 3.5410000e-01
 7.2198260e+05 7.2989950e-07 1.8190000e-01
 1.2033040e+06 0.0000000e+00 0.0000000e+00
 1.6846260e+06 1.0354520e-06 1.4960000e-01
 2.1659470e+06 0.0000000e+00 0.0000000e+00
 2.6472690e+06 0.0000000e+00 0.0000000e+00
 3.1285910e+06 2.5306160e-07 2.5200000e-01
 3.6099130e+06 0.0000000e+00 0.0000000e+00


#           E1 1.7500000e+07  incident energy
#          NEP             9  number of secondary energy points
#           ND             0  number of discrete lines
#           NA             1  number of angular parameters
# Energy       PL( 0)        PL( 1)       
 0.0000000e+00 1.6371410e-07 9.3410000e-02
 7.2198260e+05 1.4034200e-07 6.0740000e-01
 1.2033040e+06 6.6029240e-07 2.0110000e-01
 1.6846260e+06 0.0000000e+00 0.0000000e+00
 2.1659470e+06 8.3175540e-07 1.6710000e-01
 2.6472690e+06 0.0000000e+00 0.0000000e+00
 3.1285910e+06 0.0000000e+00 0.0000000e+00
 3.6099130e+06 1.9965180e-07 2.7100000e-01
 4.0912350e+06 0.0000000e+00 0.0000000e+00


#           E1 1.8000000e+07  incident energy
#          NEP            10  number of secondary energy points
#           ND             0  number of discrete lines
#           NA             1  number of angular parameters
# Energy       PL( 0)        PL( 1)       
 0.0000000e+00 1.6254110e-07 0.0000000e+00
 7.2198260e+05 3.4090910e-07 0.0000000e+00
 1.2033040e+06 1.2610090e-07 0.0000000e+00
 1.6846260e+06 5.4620620e-07 0.0000000e+00
 2.1659470e+06 0.0000000e+00 0.0000000e+00
 2.6472690e+06 6.6679040e-07 0.0000000e+00
 3.1285910e+06 0.0000000e+00 0.0000000e+00
 3.6099130e+06 0.0000000e+00 0.0000000e+00
 4.0912350e+06 1.5379440e-07 0.0000000e+00
 4.5725560e+06 0.0000000e+00 0.0000000e+00


#           E1 1.8500000e+07  incident energy
#          NEP            11  number of secondary energy points
#           ND             0  number of discrete lines
#           NA             1  number of angular parameters
# Energy       PL( 0)        PL( 1)       
 0.0000000e+00 2.5472320e-07 1.4640000e-01
 7.2198260e+05 2.5326550e-07 1.5700000e-01
 1.2033040e+06 2.9779390e-07 1.7810000e-01
 1.6846260e+06 9.9711380e-08 5.8920000e-01
 2.1659470e+06 4.2239120e-07 1.8890000e-01
 2.6472690e+06 0.0000000e+00 0.0000000e+00
 3.1285910e+06 5.0957770e-07 1.4640000e-01
 3.6099130e+06 0.0000000e+00 0.0000000e+00
 4.0912350e+06 0.0000000e+00 0.0000000e+00
 4.5725560e+06 1.1278790e-07 2.3850000e-01
 5.0538780e+06 0.0000000e+00 0.0000000e+00


#           E1 1.9000000e+07  incident energy
#          NEP            12  number of secondary energy points
#           ND             0  number of discrete lines
#           NA             1  number of angular parameters
# Energy       PL( 0)        PL( 1)       
 0.0000000e+00 4.8863230e-07 4.4440000e-02
 7.2198260e+05 1.7909540e-07 2.8500000e-01
 1.2033040e+06 1.8590950e-07 1.7190000e-01
 1.6846260e+06 2.0940760e-07 1.9500000e-01
 2.1659470e+06 7.1367790e-08 6.1300000e-01
 2.6472690e+06 2.8621650e-07 2.0090000e-01
 3.1285910e+06 0.0000000e+00 0.0000000e+00
 3.6099130e+06 3.3965590e-07 1.5270000e-01
 4.0912350e+06 0.0000000e+00 0.0000000e+00
 4.5725560e+06 0.0000000e+00 0.0000000e+00
 5.0538780e+06 7.3011450e-08 2.4940000e-01
 5.5352000e+06 0.0000000e+00 0.0000000e+00


#           E1 1.9500000e+07  incident energy
#          NEP            13  number of secondary energy points
#           ND             0  number of discrete lines
#           NA             1  number of angular parameters
# Energy       PL( 0)        PL( 1)       
 0.0000000e+00 3.5226040e-07 5.8020000e-02
 7.2198260e+05 5.6542450e-07 6.0670000e-02
 1.2033040e+06 1.4985850e-07 2.9230000e-01
 1.6846260e+06 1.3683050e-07 1.9020000e-01
 2.1659470e+06 1.5235030e-07 2.1300000e-01
 2.6472690e+06 5.3555960e-08 6.3410000e-01
 3.1285910e+06 2.0430290e-07 2.1320000e-01
 3.6099130e+06 0.0000000e+00 0.0000000e+00
 4.0912350e+06 2.3718260e-07 1.6100000e-01
 4.5725560e+06 0.0000000e+00 0.0000000e+00
 5.0538780e+06 0.0000000e+00 0.0000000e+00
 5.5352000e+06 4.9716990e-08 2.6400000e-01
 6.0165210e+06 0.0000000e+00 0.0000000e+00


#           E1 2.0000000e+07  incident energy
#          NEP            14  number of secondary energy points
#           ND             0  number of discrete lines
#           NA             1  number of angular parameters
# Energy       PL( 0)        PL( 1)       
 0.0000000e+00 2.7165590e-07 7.1320000e-02
 7.2198260e+05 4.3580910e-07 7.8829990e-02
 1.2033040e+06 4.7924570e-07 6.8220000e-02
 1.6846260e+06 1.2551100e-07 3.0420000e-01
 2.1659470e+06 1.0551390e-07 2.0770000e-01
 2.6472690e+06 1.1717190e-07 2.2920000e-01
 3.1285910e+06 4.2394640e-08 6.5190000e-01
 3.6099130e+06 1.5423120e-07 2.2550000e-01
 4.0912350e+06 0.0000000e+00 0.0000000e+00
 4.5725560e+06 1.7440620e-07 1.7090000e-01
 5.0538780e+06 0.0000000e+00 0.0000000e+00
 5.5352000e+06 0.0000000e+00 0.0000000e+00
 6.0165210e+06 3.5845120e-08 2.8120000e-01
 6.4978430e+06 0.0000000e+00 0.0000000e+00


#           E1 2.0500000e+07  incident energy
#          NEP            15  number of secondary energy points
#           ND             0  number of discrete lines
#           NA             1  number of angular parameters
# Energy       PL( 0)        PL( 1)       
 0.0000000e+00 2.2813020e-07 8.1840000e-02
 7.2198260e+05 3.5020930e-07 9.6840000e-02
 1.2033040e+06 3.8602720e-07 8.8430000e-02
 1.6846260e+06 4.0001130e-07 7.6570000e-02
 2.1659470e+06 1.0699900e-07 3.1480000e-01
 2.6472690e+06 8.4450780e-08 2.2330000e-01
 3.1285910e+06 9.3537180e-08 2.4380000e-01
 3.6099130e+06 3.4690030e-08 6.6760000e-01
 4.0912350e+06 1.2031310e-07 2.3870000e-01
 4.5725560e+06 0.0000000e+00 0.0000000e+00
 5.0538780e+06 1.3231930e-07 1.8270000e-01
 5.5352000e+06 0.0000000e+00 0.0000000e+00
 6.0165210e+06 0.0000000e+00 0.0000000e+00
 6.4978430e+06 2.6860210e-08 3.0060000e-01
 6.9791650e+06 0.0000000e+00 0.0000000e+00


#           E1 2.1000000e+07  incident energy
#          NEP            16  number of secondary energy points
#           ND             0  number of discrete lines
#           NA             1  number of angular parameters
# Energy       PL( 0)        PL( 1)       
 0.0000000e+00 2.1592900e-07 8.2830000e-02
 7.2198260e+05 2.9165470e-07 1.1430000e-01
 1.2033040e+06 3.1798690e-07 1.0830000e-01
 1.6846260e+06 3.3041310e-07 9.8960000e-02
 2.1659470e+06 3.3094160e-07 8.5510000e-02
 2.6472690e+06 9.1960780e-08 3.2330000e-01
 3.1285910e+06 6.8781100e-08 2.3740000e-01
 3.6099130e+06 7.5880270e-08 2.5770000e-01
 4.0912350e+06 2.8780960e-08 6.8300000e-01
 4.5725560e+06 9.5051730e-08 2.5350000e-01
 5.0538780e+06 0.0000000e+00 0.0000000e+00
 5.5352000e+06 1.0170900e-07 1.9660000e-01
 6.0165210e+06 0.0000000e+00 0.0000000e+00
 6.4978430e+06 0.0000000e+00 0.0000000e+00
 6.9791650e+06 2.0558780e-08 3.2190000e-01
 7.4604860e+06 0.0000000e+00 0.0000000e+00


#           E1 2.1500000e+07  incident energy
#          NEP            17  number of secondary energy points
#           ND             0  number of discrete lines
#           NA             1  number of angular parameters
# Energy       PL( 0)        PL( 1)       
 0.0000000e+00 2.3679230e-07 7.6000000e-02
 7.2198260e+05 2.6188710e-07 1.3070000e-01
 1.2033040e+06 2.6351070e-07 1.3760000e-01
 1.6846260e+06 2.7019260e-07 1.3080000e-01
 2.1659470e+06 2.7119510e-07 1.1950000e-01
 2.6472690e+06 2.6419840e-07 1.0340000e-01
 3.1285910e+06 8.1564900e-08 3.3930000e-01
 3.6099130e+06 5.5735730e-08 2.6880000e-01
 4.0912350e+06 6.1274810e-08 2.9070000e-01
 4.5725560e+06 2.4750240e-08 7.1790000e-01
 5.0538780e+06 7.4706780e-08 2.8890000e-01
 5.5352000e+06 0.0000000e+00 0.0000000e+00
 6.0165210e+06 7.7495860e-08 2.2850000e-01
 6.4978430e+06 0.0000000e+00 0.0000000e+00
 6.9791650e+06 0.0000000e+00 0.0000000e+00
 7.4604860e+06 1.5911880e-08 3.6620000e-01
 7.9418080e+06 0.0000000e+00 0.0000000e+00


#           E1 2.2000000e+07  incident energy
#          NEP            18  number of secondary energy points
#           ND             0  number of discrete lines
#           NA             1  number of angular parameters
# Energy       PL( 0)        PL( 1)       
 0.0000000e+00 2.5134050e-07 6.7940000e-02
 7.2198260e+05 2.5618770e-07 1.2860000e-01
 1.2033040e+06 2.3816350e-07 1.4880000e-01
 1.6846260e+06 2.2882720e-07 1.5440000e-01
 2.1659470e+06 2.2725090e-07 1.4670000e-01
 2.6472690e+06 2.2221000e-07 1.3410000e-01
 3.1285910e+06 2.1208310e-07 1.1610000e-01
 3.6099130e+06 6.9877890e-08 3.4650000e-01
 4.0912350e+06 4.5217340e-08 2.8660000e-01
 4.5725560e+06 4.9449690e-08 3.0990000e-01
 5.0538780e+06 2.0633540e-08 7.3660000e-01
 5.5352000e+06 5.8783910e-08 3.1190000e-01
 6.0165210e+06 0.0000000e+00 0.0000000e+00
 6.4978430e+06 5.9539440e-08 2.5060000e-01
 6.9791650e+06 0.0000000e+00 0.0000000e+00
 7.4604860e+06 0.0000000e+00 0.0000000e+00
 7.9418080e+06 1.2377720e-08 3.9470000e-01
 8.4231300e+06 0.0000000e+00 0.0000000e+00


#           E1 2.2500000e+07  incident energy
#          NEP            19  number of secondary energy points
#           ND             0  number of discrete lines
#           NA             1  number of angular parameters
# Energy       PL( 0)        PL( 1)       
 0.0000000e+00 2.5907330e-07 6.2860000e-02
 7.2198260e+05 2.5945520e-07 1.2240000e-01
 1.2033040e+06 2.3230480e-07 1.4800000e-01
 1.6846260e+06 2.0709920e-07 1.6770000e-01
 2.1659470e+06 1.9449580e-07 1.7270000e-01
 2.6472690e+06 1.8875570e-07 1.6380000e-01
 3.1285910e+06 1.8092280e-07 1.4980000e-01
 3.6099130e+06 1.6981160e-07 1.2980000e-01
 4.0912350e+06 5.9903290e-08 3.5350000e-01
 4.5725560e+06 3.6704920e-08 3.0620000e-01
 5.0538780e+06 3.9961470e-08 3.3120000e-01
 5.5352000e+06 1.7291960e-08 7.5570000e-01
 6.0165210e+06 4.6455210e-08 3.3750000e-01
 6.4978430e+06 0.0000000e+00 0.0000000e+00
 6.9791650e+06 4.6091830e-08 2.7520000e-01
 7.4604860e+06 0.0000000e+00 0.0000000e+00
 7.9418080e+06 0.0000000e+00 0.0000000e+00
 8.4231300e+06 9.7486460e-09 4.2400000e-01
 8.9044510e+06 0.0000000e+00 0.0000000e+00


#           E1 2.3000000e+07  incident energy
#          NEP            20  number of secondary energy points
#           ND             0  number of discrete lines
#           NA             1  number of angular parameters
# Energy       PL( 0)        PL( 1)       
 0.0000000e+00 2.5782330e-07 6.0350000e-02
 7.2198260e+05 2.6956010e-07 1.1340000e-01
 1.2033040e+06 2.3563800e-07 1.4080000e-01
 1.6846260e+06 2.0050520e-07 1.6860000e-01
 2.1659470e+06 1.7719810e-07 1.8730000e-01
 2.6472690e+06 1.6315150e-07 1.9160000e-01
 3.1285910e+06 1.5512110e-07 1.8200000e-01
 3.6099130e+06 1.4631030e-07 1.6670000e-01
 4.0912350e+06 1.3536990e-07 1.4480000e-01
 4.5725560e+06 5.1207310e-08 3.6060000e-01
 5.0538780e+06 2.9701390e-08 3.2790000e-01
 5.5352000e+06 3.2227750e-08 3.5480000e-01
 6.0165210e+06 1.4521020e-08 7.7500000e-01
 6.4978430e+06 3.6779670e-08 3.6580000e-01
 6.9791650e+06 0.0000000e+00 0.0000000e+00
 7.4604860e+06 3.5847250e-08 3.0220000e-01
 7.9418080e+06 0.0000000e+00 0.0000000e+00
 8.4231300e+06 0.0000000e+00 0.0000000e+00
 8.9044510e+06 7.7391680e-09 4.5390000e-01
 9.3857730e+06 0.0000000e+00 0.0000000e+00


#           E1 2.3500000e+07  incident energy
#          NEP            21  number of secondary energy points
#           ND             0  number of discrete lines
#           NA             1  number of angular parameters
# Energy       PL( 0)        PL( 1)       
 0.0000000e+00 2.4861150e-07 6.0190000e-02
 7.2198260e+05 2.7481180e-07 1.0760000e-01
 1.2033040e+06 2.4370060e-07 1.3210000e-01
 1.6846260e+06 2.0261150e-07 1.6300000e-01
 2.1659470e+06 1.7299020e-07 1.8870000e-01
 2.6472690e+06 1.4986120e-07 2.0750000e-01
 3.1285910e+06 1.3599870e-07 2.1200000e-01
 3.6099130e+06 1.2740890e-07 2.0160000e-01
 4.0912350e+06 1.1854830e-07 1.8500000e-01
 4.5725560e+06 1.0832670e-07 1.6110000e-01
 5.0538780e+06 4.3983200e-08 3.6800000e-01
 5.5352000e+06 2.4139680e-08 3.5200000e-01
 6.0165210e+06 2.6142950e-08 3.8070000e-01
 6.4978430e+06 1.2309870e-08 7.9410000e-01
 6.9791650e+06 2.9423830e-08 3.9630000e-01
 7.4604860e+06 0.0000000e+00 0.0000000e+00
 7.9418080e+06 2.8206300e-08 3.3140000e-01
 8.4231300e+06 0.0000000e+00 0.0000000e+00
 8.9044510e+06 0.0000000e+00 0.0000000e+00
 9.3857730e+06 6.2314290e-09 4.8390000e-01
 9.8670950e+06 0.0000000e+00 0.0000000e+00


#           E1 2.4000000e+07  incident energy
#          NEP            22  number of secondary energy points
