#    [ 1725 :  6 :   5 ]    17 -  35
# Energy and angle distribution
#           NK           168  number of subsections
#          ZAP             1
#          LIP             0  product modifier
#          LAW             1  distribution law
#           NP            66  yield energy points
#   Energy[eV]  CrossSec [b]  Multiplicity  CrossSec x M
 1.0000000e+06 4.0936660e-06 0.0000000e+00 0.0000000e+00
 1.2644760e+07 9.3842652e-03 0.0000000e+00 0.0000000e+00
 1.3000000e+07 9.9884020e-03 6.8028420e-02 6.7949521e-04
 1.3500000e+07 1.0756910e-02 1.6487100e-01 1.7735025e-03
 1.4000000e+07 1.1810980e-02 2.0911450e-01 2.4698472e-03
 1.4500000e+07 1.3436000e-02 2.2769720e-01 3.0593396e-03
 1.5000000e+07 1.5843800e-02 2.6415680e-01 4.1852475e-03
 1.5500000e+07 1.9234960e-02 2.9300410e-01 5.6359221e-03
 1.6000000e+07 2.3798890e-02 3.0132790e-01 7.1712695e-03
 1.6500000e+07 2.9586160e-02 3.1715350e-01 9.3833542e-03
 1.7000000e+07 3.6196580e-02 3.3949780e-01 1.2288659e-02
 1.7500000e+07 4.2453840e-02 3.6016810e-01 1.5290519e-02
 1.8000000e+07 4.6770830e-02 3.7030580e-01 1.7319510e-02
 1.8500000e+07 4.8460900e-02 3.8070570e-01 1.8449341e-02
 1.9000000e+07 4.8310690e-02 3.8714310e-01 1.8703150e-02
 1.9500000e+07 4.7528820e-02 4.0030010e-01 1.9025791e-02
 2.0000000e+07 4.6770480e-02 4.1650460e-01 1.9480120e-02
 2.1000000e+07 4.5215750e-02 4.8220680e-01 2.1803342e-02
 2.2000000e+07 4.2305050e-02 5.4639550e-01 2.3115289e-02
 2.3000000e+07 3.7667470e-02 5.9365570e-01 2.2361508e-02
 2.4000000e+07 3.2314380e-02 6.2733930e-01 2.0272081e-02
 2.5000000e+07 2.7245650e-02 6.5354320e-01 1.7806209e-02
 2.6000000e+07 2.2913400e-02 6.7686200e-01 1.5509210e-02
 2.7000000e+07 1.9378870e-02 7.0638590e-01 1.3688961e-02
 2.8000000e+07 1.6542610e-02 7.2577540e-01 1.2006219e-02
 2.9000000e+07 1.4270040e-02 7.4298320e-01 1.0602400e-02
 3.0000000e+07 1.2438760e-02 7.6092400e-01 9.4649510e-03
 3.2000000e+07 9.7290370e-03 8.1351150e-01 7.9146835e-03
 3.4000000e+07 7.8733960e-03 8.6637950e-01 6.8213489e-03
 3.6000000e+07 6.5619060e-03 9.1610360e-01 6.0113857e-03
 3.8000000e+07 5.6127850e-03 9.5391340e-01 5.3541108e-03
 4.0000000e+07 4.9143320e-03 9.8383810e-01 4.8349071e-03
 4.2000000e+07 4.3943920e-03 1.0134090e+00 4.4533164e-03
 4.4000000e+07 4.0042220e-03 1.0336570e+00 4.1389921e-03
 4.6000000e+07 3.7096940e-03 1.0710330e+00 3.9732047e-03
 4.8000000e+07 3.4862610e-03 1.1068910e+00 3.8589109e-03
 5.0000000e+07 3.3159360e-03 1.1467820e+00 3.8026557e-03
 5.2000000e+07 3.1853680e-03 1.1831890e+00 3.7688924e-03
 5.4000000e+07 3.0845580e-03 1.2142110e+00 3.7453043e-03
 5.6000000e+07 3.0059740e-03 1.2423550e+00 3.7344868e-03
 5.8000000e+07 2.9439160e-03 1.2722540e+00 3.7454089e-03
 6.0000000e+07 2.8940570e-03 1.2992720e+00 3.7601672e-03
 6.2000000e+07 2.8531080e-03 1.3245920e+00 3.7792040e-03
 6.4000000e+07 2.8185640e-03 1.3483550e+00 3.8004249e-03
 6.6000000e+07 2.7885160e-03 1.3739590e+00 3.8313067e-03
 6.8000000e+07 2.7615150e-03 1.3985950e+00 3.8622411e-03
 7.0000000e+07 2.7364590e-03 1.4266230e+00 3.9038953e-03
 7.2000000e+07 2.7125190e-03 1.4492530e+00 3.9311263e-03
 7.4000000e+07 2.6890730e-03 1.4789090e+00 3.9768943e-03
 7.6000000e+07 2.6656590e-03 1.5020490e+00 4.0039504e-03
 7.8000000e+07 2.6419440e-03 1.5272830e+00 4.0349962e-03
 8.0000000e+07 2.6176910e-03 1.5556650e+00 4.0722503e-03
 8.5000000e+07 2.5537930e-03 1.6240160e+00 4.1474007e-03
 9.0000000e+07 2.4845800e-03 1.6855990e+00 4.1880056e-03
 9.5000000e+07 2.4102750e-03 1.7539180e+00 4.2274247e-03
 1.0000000e+08 2.3318280e-03 1.8183820e+00 4.2401541e-03
 1.1000000e+08 2.1680170e-03 1.9401240e+00 4.2062218e-03
 1.2000000e+08 2.0054320e-03 2.0556360e+00 4.1224382e-03
 1.3000000e+08 1.8568330e-03 2.1759950e+00 4.0404593e-03
 1.4000000e+08 1.7344390e-03 2.4192810e+00 4.1960953e-03
 1.5000000e+08 1.5832930e-03 2.5315860e+00 4.0082424e-03
 1.6000000e+08 1.4529210e-03 2.6347190e+00 3.8280386e-03
 1.7000000e+08 1.3395130e-03 2.7478290e+00 3.6807527e-03
 1.8000000e+08 1.2401240e-03 2.8495800e+00 3.5338325e-03
 1.9000000e+08 1.1524360e-03 2.9513580e+00 3.4012512e-03
 2.0000000e+08 1.0746060e-03 3.0512360e+00 3.2788765e-03


#           NR             1
#           NE            29
#         LANG             1  1: Legendre, 2:KM systematics, 11-15: tabulated
#          LEP             2  secondary energy interpolation
#           E1 1.0000000e+06  incident energy
#          NEP             3  number of secondary energy points
#           ND             0  number of discrete lines
#           NA             3  number of angular parameters
 0.0000000e+00 0.0000000e+00 0.0000000e+00 0.0000000e+00 0.0000000e+00
 5.0000000e-01 2.0000000e+00 0.0000000e+00 0.0000000e+00 0.0000000e+00
 1.0000000e+00 0.0000000e+00 0.0000000e+00 0.0000000e+00 0.0000000e+00


#           E1 1.2644760e+07  incident energy
#          NEP             3  number of secondary energy points
#           ND             0  number of discrete lines
#           NA             3  number of angular parameters
 0.0000000e+00 0.0000000e+00 0.0000000e+00 0.0000000e+00 0.0000000e+00
 5.0000000e-01 2.0000000e+00 0.0000000e+00 0.0000000e+00 0.0000000e+00
 1.0000000e+00 0.0000000e+00 0.0000000e+00 0.0000000e+00 0.0000000e+00


#           E1 1.4000000e+07  incident energy
#          NEP            16  number of secondary energy points
#           ND             0  number of discrete lines
#           NA             3  number of angular parameters
 0.0000000e+00 0.0000000e+00 0.0000000e+00 0.0000000e+00 0.0000000e+00
 2.5000000e+04 2.0638360e-07 8.9088000e-24 -2.443480e-23 -7.708290e-25
 1.0000000e+05 8.2553450e-07 3.2479630e-09 1.0849300e-10 2.5857300e-12
 2.0000000e+05 1.3932900e-13 3.9286600e-30 -5.498620e-30 -2.895130e-30
 3.0000000e+05 1.2022500e-13 1.3551100e-30 -7.117030e-30 -2.759320e-30
 4.0000000e+05 9.2851600e-14 1.0139400e-29 -1.465750e-29 2.2759500e-30
 5.0000000e+05 6.6209900e-14 -3.440420e-30 6.5324300e-31 -1.412270e-30
 6.0000000e+05 4.3345700e-14 -7.068690e-30 -6.842550e-30 3.1673000e-31
 7.0000000e+05 2.5730000e-06 9.4933130e-09 3.3309000e-10 8.3534500e-12
 8.0000000e+05 1.4648600e-14 -7.027950e-31 1.4452600e-31 1.1605000e-31
 9.0000000e+05 2.9074550e-06 5.3323720e-09 1.9036800e-10 4.8497700e-12
 1.0000000e+06 3.0274200e-15 8.5364100e-32 -1.194770e-31 -6.290690e-32
 1.1000000e+06 1.0009200e-15 -1.632270e-31 -1.580050e-31 7.3137900e-33
 1.2000000e+06 3.0590210e-06 1.8923150e-09 6.9355800e-11 1.8138700e-12
 1.3000000e+06 3.3556900e-17 -2.470010e-33 -3.641890e-33 1.8583400e-33
 1.4000000e+06 1.2699780e-06 -1.016160e-22 3.7589700e-23 1.7934000e-23


#           E1 1.6000000e+07  incident energy
#          NEP            33  number of secondary energy points
#           ND             0  number of discrete lines
#           NA             4  number of angular parameters
 0.0000000e+00 0.0000000e+00 0.0000000e+00 0.0000000e+00 0.0000000e+00 0.0000000e+00
 2.6666670e+04 4.0665920e-09 -3.157190e-25 -1.203660e-25 5.7485600e-26 3.8115900e-25
 1.0666670e+05 1.6264250e-08 2.1778600e-10 7.7041700e-12 1.9483600e-13 3.8694200e-15
 2.1333330e+05 2.8435180e-07 5.9669040e-09 2.1496100e-10 5.5353000e-12 1.0837700e-13
 3.2000000e+05 1.7277500e-12 2.8306900e-29 5.1139100e-29 5.0519400e-29 1.7472500e-28
 4.2666670e+05 1.6440500e-12 -7.887640e-29 1.6220500e-29 1.3024600e-29 -1.662610e-28
 5.3333330e+05 1.5095800e-12 6.5163000e-29 -1.787270e-28 -5.638190e-30 -9.308690e-29
 6.4000000e+05 5.5936140e-07 9.2741610e-09 3.4620200e-10 9.2367300e-12 1.9245100e-13
 7.4666670e+05 9.8919990e-07 7.0570570e-09 2.6635500e-10 7.1863500e-12 1.4894400e-13
 8.5333330e+05 1.0600100e-12 -7.802390e-29 -1.150420e-28 5.8702300e-29 1.5949000e-28
 9.6000000e+05 2.9312820e-07 8.0845700e-09 3.1072700e-10 8.5317900e-12 1.8025800e-13
 1.0666670e+06 8.0152800e-13 1.3961400e-29 -3.954030e-29 -3.140310e-29 9.2919800e-29
 1.1733330e+06 1.3394320e-06 9.9766550e-09 3.9014400e-10 1.0896900e-11 2.3902300e-13
 1.2800000e+06 5.7792400e-13 6.5140100e-30 -3.421160e-29 -1.326410e-29 -3.136070e-29
 1.3866670e+06 6.1239630e-07 5.7629460e-09 2.2994200e-10 6.5572600e-12 1.4410800e-13
 1.4933330e+06 9.9021850e-07 1.4749470e-08 5.9023800e-10 1.6883100e-11 3.7529200e-13
 1.6000000e+06 3.2410200e-13 1.1823100e-30 3.1976700e-30 -1.137640e-30 1.0392400e-29
 1.7066670e+06 2.5947100e-13 -1.694090e-29 2.5600000e-29 -5.184780e-30 -1.856000e-29
 1.8133330e+06 2.0279300e-13 -3.570230e-29 2.0008000e-30 -1.299670e-30 2.2509000e-29
 1.9200000e+06 1.5492700e-13 1.8291100e-30 -1.222840e-29 1.1546400e-30 -3.477440e-29
 2.0266670e+06 1.1559600e-13 -8.923910e-30 -2.280990e-30 2.9197000e-30 1.0549600e-29
 2.1333330e+06 1.2409320e-06 2.3545110e-08 9.9280000e-10 2.9918300e-11 7.0307300e-13
 2.2400000e+06 5.8520500e-14 -1.149020e-30 -2.886890e-30 -1.743020e-30 -4.474670e-30
 2.3466670e+06 3.9561900e-14 6.4817100e-31 1.1709800e-30 1.1567900e-30 4.0008500e-30
 2.4533330e+06 2.5612100e-14 -1.988450e-30 -7.580860e-31 3.6205500e-31 2.4006000e-30
 2.5600000e+06 1.5633100e-14 -5.197630e-31 -1.542400e-31 3.5082200e-31 -5.398390e-31
 2.6666670e+06 1.0118950e-06 1.0279680e-08 4.5266800e-10 1.4247100e-11 3.4786800e-13
 2.7733330e+06 4.5785100e-15 1.9763700e-31 -5.420720e-31 -1.710040e-32 -2.823290e-31
 2.8800000e+06 9.7215300e-07 5.2171390e-09 2.3330200e-10 7.4559300e-12 1.8230500e-13
 2.9866670e+06 7.1450800e-16 -1.417450e-31 -9.164360e-32 1.4318800e-32 6.8732700e-32
 3.0933330e+06 1.5394100e-16 -7.385620e-33 1.5188200e-33 1.2195600e-33 -1.556790e-32
 3.2000000e+06 8.8959290e-07 1.6551740e-09 7.5759600e-11 2.4807400e-12 6.3895700e-14
 3.3066670e+06 3.5213350e-07 -1.829770e-23 3.4742300e-24 -7.511080e-24 2.3451100e-23


#           E1 1.8000000e+07  incident energy
#          NEP            47  number of secondary energy points
#           ND             0  number of discrete lines
#           NA             4  number of angular parameters
 0.0000000e+00 0.0000000e+00 0.0000000e+00 0.0000000e+00 0.0000000e+00 0.0000000e+00
 3.0000000e+04 1.5925730e-08 -5.294930e-25 -1.571270e-25 3.5738900e-25 -5.499450e-25
 1.2000000e+05 6.3695780e-08 1.2382120e-09 4.6864200e-11 1.2675700e-12 2.6712400e-14
 2.4000000e+05 1.0871810e-07 2.1567300e-09 8.2501700e-11 2.2559200e-12 4.9107000e-14
 3.6000000e+05 1.4178080e-07 2.8604050e-09 1.1057900e-10 3.0541300e-12 6.4890900e-14
 4.8000000e+05 1.6526950e-07 3.3883620e-09 1.3236300e-10 3.6955400e-12 8.0587200e-14
 6.0000000e+05 1.8184220e-07 3.7886470e-09 1.4954000e-10 4.2187200e-12 9.3427400e-14
 7.2000000e+05 1.9158050e-07 5.7598620e-09 2.2986400e-10 6.5551800e-12 1.4496400e-13
 8.4000000e+05 1.9758030e-07 4.1465160e-09 1.6729900e-10 4.8228700e-12 1.0768900e-13
 9.6000000e+05 2.1048160e-07 4.5937620e-09 1.8692000e-10 5.4340200e-12 1.2296300e-13
 1.0800000e+06 1.6781330e-07 2.9607570e-09 1.2119500e-10 3.5446900e-12 7.9728800e-14
 1.2000000e+06 6.0337970e-07 6.9823680e-09 2.8930800e-10 8.5659000e-12 1.9570700e-13
 1.3200000e+06 3.2747120e-07 5.9283530e-09 2.4854900e-10 7.4473600e-12 1.7336800e-13
 1.4400000e+06 2.1196940e-07 3.6435960e-09 1.5388500e-10 4.6436600e-12 1.0911700e-13
 1.5600000e+06 4.7009480e-07 8.2576990e-09 3.5270000e-10 1.0766800e-11 2.5671900e-13
 1.6800000e+06 3.0019950e-07 4.8423750e-09 2.0944500e-10 6.4740400e-12 1.5580000e-13
 1.8000000e+06 2.3811290e-07 7.3860220e-09 3.2178900e-10 1.0020500e-11 2.4448600e-13
 1.9200000e+06 2.5335080e-07 5.2456210e-09 2.3177000e-10 7.3190300e-12 1.7988700e-13
 2.0400000e+06 2.6996510e-07 6.3495700e-09 2.8163700e-10 8.9281400e-12 2.2019600e-13
 2.1600000e+06 1.2821000e-12 -1.483740e-28 3.7948600e-29 1.9862900e-29 -1.897430e-29
 2.2800000e+06 3.7673930e-07 1.5554750e-08 7.0105000e-10 2.2583600e-11 5.6574500e-13
 2.4000000e+06 9.5382900e-13 -4.576190e-29 9.4107100e-30 7.5565300e-30 -9.645980e-29
 2.5200000e+06 8.1426300e-13 -1.471510e-29 -4.820230e-29 -3.424580e-29 -4.418540e-29
 2.6400000e+06 4.4611530e-07 1.3309670e-08 6.1896300e-10 2.0576800e-11 5.3135600e-13
 2.7600000e+06 4.6354280e-07 9.4465370e-09 4.4360000e-10 1.4890200e-11 3.8884500e-13
 2.8800000e+06 4.8342100e-13 -2.319310e-29 4.7695500e-30 3.8298100e-30 -4.888790e-29
 3.0000000e+06 2.0827380e-07 9.9449070e-09 4.7459000e-10 1.6187400e-11 4.2934300e-13
 3.1200000e+06 2.4025320e-07 5.2906250e-09 2.5615800e-10 8.8640300e-12 2.3733100e-13
 3.2400000e+06 3.0675280e-07 6.2189690e-09 3.0161800e-10 1.0456300e-11 2.8195100e-13
 3.3600000e+06 2.1018200e-13 -1.092160e-29 2.0737100e-30 -4.483230e-30 1.3997500e-29
 3.4800000e+06 7.6444600e-07 2.1980180e-08 1.0865390e-09 3.8394000e-11 1.0555700e-12
 3.6000000e+06 1.2672500e-13 -9.783020e-30 -2.500590e-30 3.2007900e-30 1.1565200e-29
 3.7200000e+06 9.5688600e-14 1.5677400e-30 2.8322600e-30 2.7979400e-30 9.6768800e-30
 3.8400000e+06 7.0597200e-14 -1.386140e-30 -3.482640e-30 -2.102720e-30 -5.398100e-30
 3.9600000e+06 5.0750800e-14 5.9917900e-31 -4.005760e-30 3.7823700e-31 -1.139140e-29
 4.0800000e+06 5.1097240e-07 2.1338490e-08 1.1063260e-09 4.1006300e-11 1.1828800e-12
 4.2000000e+06 2.3822200e-14 -2.862910e-31 0.0000000e+00 1.1426700e-31 -8.813830e-31
 4.3200000e+06 1.5330400e-14 -1.226640e-30 4.5375900e-31 2.1648800e-31 -9.453310e-31
 4.4400000e+06 9.3690000e-15 4.0442400e-31 -1.109240e-30 -3.499260e-32 -5.777300e-31
 4.5600000e+06 5.3731700e-15 -9.459640e-31 5.3013000e-32 -3.443590e-32 5.9639600e-31
 4.6800000e+06 3.2579120e-07 8.2710690e-09 4.4598000e-10 1.7192500e-11 5.1574400e-13
 4.8000000e+06 1.3554600e-15 2.3610100e-32 -6.686640e-32 -5.310550e-32 1.5713600e-31
 4.9200000e+06 2.8201570e-07 4.0432910e-09 2.2108400e-10 8.6431300e-12 2.6274200e-13
 5.0400000e+06 1.8789900e-16 2.2183900e-33 -1.483080e-32 1.4003800e-33 -4.217520e-32
 5.1600000e+06 2.6020580e-07 1.2179470e-09 6.8027700e-11 2.7161500e-12 8.3941900e-14
 5.2800000e+06 5.8924300e-18 6.6415900e-35 -3.488170e-34 -1.352390e-34 -3.197490e-34
 5.4000000e+06 8.9829530e-08 -1.581480e-23 8.8628000e-25 -5.757040e-25 9.9706500e-24


#           E1 2.0000000e+07  incident energy
#          NEP            57  number of secondary energy points
#           ND             0  number of discrete lines
#           NA             5  number of angular parameters
 0.0000000e+00 0.0000000e+00 0.0000000e+00 0.0000000e+00 0.0000000e+00 0.0000000e+00 0.0000000e+00
 3.3333320e+04 2.8827850e-08 3.2493000e-25 -1.706540e-24 -6.616340e-25 -1.564320e-24 -6.819990e-25
 1.3333330e+05 1.1530790e-07 1.4203570e-09 5.6727000e-11 1.6194400e-12 3.5971100e-14 -5.839380e-17
 2.6666670e+05 1.4669190e-07 2.4744590e-09 9.9998200e-11 2.8889900e-12 6.4609200e-14 1.8033000e-15
 4.0000000e+05 1.6258650e-07 3.2722590e-09 1.3379300e-10 3.9096800e-12 8.9853900e-14 4.9755700e-16
 5.3333330e+05 1.7054050e-07 3.8713980e-09 1.6013300e-10 4.7335200e-12 1.0745000e-13 2.2569400e-15
 6.6666670e+05 1.7452060e-07 4.3330590e-09 1.8129300e-10 5.4214800e-12 1.2659400e-13 1.7623100e-15
 8.0000000e+05 1.7683390e-07 4.7031970e-09 1.9902800e-10 6.0199800e-12 1.4049100e-13 2.9188500e-15
 9.3333330e+05 1.7841370e-07 5.0133960e-09 2.1455500e-10 6.5618500e-12 1.5688500e-13 2.7226100e-15
 1.0666670e+06 1.8039250e-07 5.2845020e-09 2.2869400e-10 7.0738300e-12 1.6997200e-13 3.3944300e-15
 1.2000000e+06 1.8267150e-07 5.5297610e-09 2.4197000e-10 7.5671000e-12 1.8324600e-13 4.0725300e-15
 1.3333330e+06 1.8494430e-07 5.7571440e-09 2.5469500e-10 8.0524000e-12 1.9769200e-13 3.6969500e-15
 1.4666670e+06 1.8701650e-07 5.9710070e-09 2.6704500e-10 8.5357900e-12 2.1183100e-13 5.1724300e-15
 1.6000000e+06 1.8873660e-07 6.1732700e-09 2.7908100e-10 9.0182900e-12 2.2735300e-13 3.8888900e-15
 1.7333330e+06 1.9001940e-07 6.3642690e-09 2.9080700e-10 9.4984600e-12 2.4092800e-13 4.9617500e-15
 1.8666670e+06 1.9083250e-07 6.5433710e-09 3.0217900e-10 9.9742000e-12 2.5537100e-13 5.5589700e-15
 2.0000000e+06 1.9116950e-07 6.7094250e-09 3.1312300e-10 1.0445300e-11 2.7214000e-13 5.5661900e-15
 2.1333330e+06 1.9102920e-07 6.8610680e-09 3.2355800e-10 1.0907400e-11 2.8747900e-13 5.6281500e-15
 2.2666670e+06 1.9041280e-07 6.9969420e-09 3.3340100e-10 1.1355200e-11 2.9959200e-13 6.5586700e-15
 2.4000000e+06 1.8932490e-07 7.1158260e-09 3.4256900e-10 1.1787300e-11 3.1530100e-13 7.5481400e-15
 2.5333330e+06 1.8777600e-07 7.2167230e-09 3.5098800e-10 1.2201400e-11 3.2923800e-13 7.7043700e-15
 2.6666670e+06 1.3756360e-07 7.2988950e-09 3.5859700e-10 1.2594500e-11 3.4383400e-13 7.6755600e-15
 2.8000000e+06 1.6962760e-07 6.4294350e-09 3.1919100e-10 1.1329800e-11 3.1294300e-13 5.8468200e-15
 2.9333330e+06 1.9711080e-07 5.6666630e-09 2.8368800e-10 1.0151900e-11 2.8197100e-13 5.9552500e-15
 3.0666670e+06 1.7138730e-07 6.4928490e-09 3.2751400e-10 1.1810100e-11 3.3140700e-13 9.3334600e-15
 3.2000000e+06 3.1694990e-07 8.9746750e-09 4.5798600e-10 1.6706000e-11 4.7470300e-13 1.0351400e-14
 3.3333330e+06 2.7234870e-07 8.5339800e-09 4.4041700e-10 1.6250400e-11 4.6774300e-13 1.0183500e-14
 3.4666670e+06 1.6626280e-07 7.3073710e-09 3.8094500e-10 1.4197100e-11 4.1071300e-13 9.2858700e-15
 3.6000000e+06 1.6927160e-07 5.6099410e-09 2.9474800e-10 1.1071800e-11 3.2438900e-13 7.3677100e-15
 3.7333330e+06 2.1391630e-07 7.8255760e-09 4.1543700e-10 1.5767500e-11 4.6534200e-13 1.1018000e-14
 3.8666670e+06 1.1928680e-07 5.8416580e-09 3.1214400e-10 1.1925400e-11 3.5491500e-13 9.0475500e-15
 4.0000000e+06 2.6205890e-07 1.2293440e-08 6.6575500e-10 2.5777300e-11 7.7739900e-13 1.8902800e-14
 4.1333330e+06 5.2390200e-13 -3.856260e-29 -5.685840e-29 2.9013100e-29 7.8826400e-29 -1.841180e-29
 4.2666670e+06 2.2670020e-07 1.5734960e-08 8.6586800e-10 3.4066100e-11 1.0433700e-12 2.6649600e-14
 4.4000000e+06 3.5947100e-13 -2.346990e-29 3.5466200e-29 -7.183000e-30 -2.571300e-29 -3.539620e-31
 4.5333330e+06 2.9465500e-13 -1.957930e-29 -3.197850e-29 1.5290300e-29 5.0148100e-29 -1.140510e-29
 4.6666670e+06 2.4199860e-07 1.2483640e-08 7.0670400e-10 2.8606100e-11 9.0097700e-13 2.3519400e-14
 4.8000000e+06 2.0492410e-07 8.6776750e-09 4.9559900e-10 2.0238900e-11 6.4307800e-13 1.6841600e-14
 4.9333330e+06 1.2641670e-07 8.8488850e-09 5.1283400e-10 2.1252400e-11 6.8525900e-13 1.8017400e-14
 5.0666670e+06 1.2244900e-13 -2.955580e-30 1.2081100e-30 -3.340960e-30 2.1142000e-30 -2.069160e-30
 5.2000000e+06 2.3279480e-07 9.9696930e-09 5.8594700e-10 2.4626800e-11 8.0528100e-13 2.1654800e-14
 5.3333330e+06 7.3789100e-14 -5.696460e-30 -1.456040e-30 1.8637500e-30 6.7342000e-30 -1.826630e-30
 5.4666670e+06 3.4307270e-07 1.8383610e-08 1.0949670e-09 4.6637500e-11 1.5460400e-12 4.1860500e-14
 5.6000000e+06 4.1608500e-14 1.7960800e-30 -4.926230e-30 -1.554050e-31 -2.565750e-30 -1.536050e-30
 5.7333330e+06 3.0251700e-14 1.1035600e-31 2.9847000e-31 -1.061870e-31 9.7002800e-31 -1.123920e-30
 5.8666670e+06 2.1425500e-14 -5.171510e-31 2.1138900e-31 -5.845830e-31 3.6993100e-31 -3.620490e-31
 6.0000000e+06 1.4710900e-14 -1.082820e-30 -1.596560e-30 8.1467400e-31 2.2134100e-30 -5.169940e-31
 6.1333330e+06 2.4043790e-07 1.5998610e-08 9.4004700e-10 3.9497300e-11 1.2912700e-12 3.4667000e-14
 6.2666670e+06 6.1247300e-15 -4.755070e-31 -1.812840e-31 8.6579700e-32 5.7406700e-31 -1.630200e-31
 6.4000000e+06 3.6297500e-15 -2.411900e-31 -3.939320e-31 1.8835600e-31 6.1775700e-31 -1.404950e-31
 6.5333330e+06 1.9913500e-15 -3.598690e-32 -1.178830e-31 -8.375100e-32 -1.080590e-31 3.2458900e-33
 6.6666670e+06 1.2396740e-07 5.7738400e-09 3.3668400e-10 1.4038500e-11 4.5559000e-13 1.1438300e-14
 6.8000000e+06 4.1845300e-16 -6.248510e-33 -1.238570e-32 2.1936500e-32 4.7478400e-32 -1.438850e-32
 6.9333330e+06 9.3456470e-08 2.7601450e-09 1.6062500e-10 6.6836500e-12 2.1662200e-13 5.7224000e-15
 7.0666670e+06 2.9088200e-17 4.7657400e-34 8.6097500e-34 8.5054200e-34 2.9416600e-33 -1.086610e-33
 7.2000000e+06 7.9088750e-08 8.0722300e-10 4.6861000e-11 1.9463100e-12 6.3430600e-14 7.9881400e-16
 7.3333330e+06 2.4270580e-08 -4.272910e-24 2.3945900e-25 -1.555460e-25 2.6939200e-24 -9.007560e-25


#           E1 2.2000000e+07  incident energy
#          NEP            66  number of secondary energy points
#           ND             0  number of discrete lines
#           NA             5  number of angular parameters
 0.0000000e+00 0.0000000e+00 0.0000000e+00 0.0000000e+00 0.0000000e+00 0.0000000e+00 0.0000000e+00
