#    [ 2034 :  6 :   5 ]    20 -  43
# Energy and angle distribution
#           NK            29  number of subsections

#   Subsection             0
#          ZAP             1
#          LIP             0  product modifier
#          LAW             1  distribution law
#           NP            71  yield energy points
#   Energy[eV]  CrossSec [b]  Multiplicity  CrossSec x M
 7.5925000e+06 0.0000000e+00 0.0000000e+00 0.0000000e+00
 7.9330000e+06 1.2417410e-04 0.0000000e+00 0.0000000e+00
 9.0000000e+06 5.1328940e-04 3.5717000e-01 1.8333157e-04
 1.0000000e+07 1.1083940e-03 9.9460390e-01 1.1024130e-03
 1.1000000e+07 1.6727180e-03 9.9549630e-01 1.6651846e-03
 1.2000000e+07 2.5504810e-03 9.7683710e-01 2.4914045e-03
 1.3000000e+07 3.9581620e-03 9.5288290e-01 3.7716649e-03
 1.4000000e+07 6.2858830e-03 9.2634940e-01 5.8229239e-03
 1.5000000e+07 1.0275660e-02 9.0256000e-01 9.2743997e-03
 1.6000000e+07 1.7367520e-02 8.9123940e-01 1.5478618e-02
 1.6500000e+07 2.2851480e-02 8.8920940e-01 2.0319751e-02
 1.7000000e+07 3.0226910e-02 8.8682020e-01 2.6805834e-02
 1.7500000e+07 3.9979570e-02 8.8072800e-01 3.5211127e-02
 1.8000000e+07 5.2341290e-02 8.5858180e-01 4.4939279e-02
 1.8500000e+07 6.6715990e-02 8.3772100e-01 5.5889386e-02
 1.9000000e+07 8.0949080e-02 8.1264300e-01 6.5782703e-02
 1.9500000e+07 9.1409560e-02 8.0218800e-01 7.3327652e-02
 2.0000000e+07 9.4955700e-02 8.3111110e-01 7.8918736e-02
 2.0500000e+07 9.1348260e-02 8.8304160e-01 8.0664314e-02
 2.1000000e+07 8.3081980e-02 9.1551220e-01 7.6062566e-02
 2.1500000e+07 7.3138040e-02 9.5593220e-01 6.9915007e-02
 2.2000000e+07 6.3487630e-02 9.7389620e-01 6.1830362e-02
 2.2500000e+07 5.4995170e-02 9.9804610e-01 5.4887715e-02
 2.3000000e+07 4.7855340e-02 1.0106470e+00 4.8364856e-02
 2.4000000e+07 3.7131170e-02 1.0412370e+00 3.8662348e-02
 2.5000000e+07 2.9867170e-02 1.0657290e+00 3.1830309e-02
 2.6000000e+07 2.4819920e-02 1.0825830e+00 2.6869623e-02
 2.7000000e+07 2.1193950e-02 1.0932060e+00 2.3169353e-02
 2.8000000e+07 1.8503570e-02 1.1001190e+00 2.0356129e-02
 2.9000000e+07 1.6448970e-02 1.1044800e+00 1.8167558e-02
 3.0000000e+07 1.4838220e-02 1.1159130e+00 1.6558163e-02
 3.1000000e+07 1.3548400e-02 1.1367120e+00 1.5400629e-02
 3.2000000e+07 1.2495530e-02 1.1676070e+00 1.4589868e-02
 3.3000000e+07 1.1620620e-02 1.2072760e+00 1.4029296e-02
 3.4000000e+07 1.0883690e-02 1.2542220e+00 1.3650563e-02
 3.5000000e+07 1.0254740e-02 1.3066220e+00 1.3399069e-02
 3.6000000e+07 9.7102790e-03 1.3624720e+00 1.3229983e-02
 3.7000000e+07 9.2352090e-03 1.4203560e+00 1.3117285e-02
 3.8000000e+07 8.8164360e-03 1.4785180e+00 1.3035259e-02
 3.9000000e+07 8.4440570e-03 1.5354750e+00 1.2965638e-02
 4.0000000e+07 8.1101740e-03 1.5901550e+00 1.2896434e-02
 4.2000000e+07 7.5349010e-03 1.6897450e+00 1.2732061e-02
 4.4000000e+07 7.0543200e-03 1.7780020e+00 1.2542595e-02
 4.6000000e+07 6.6441350e-03 1.8539890e+00 1.2318153e-02
 4.8000000e+07 6.2876450e-03 1.9215570e+00 1.2082068e-02
 5.0000000e+07 5.9729530e-03 1.9872020e+00 1.1869464e-02
 5.2000000e+07 5.6923600e-03 2.0539920e+00 1.1692062e-02
 5.4000000e+07 5.4371660e-03 2.1232100e+00 1.1544245e-02
 5.6000000e+07 5.2045700e-03 2.1942890e+00 1.1420331e-02
 5.8000000e+07 4.9914740e-03 2.2664840e+00 1.1313096e-02
 6.0000000e+07 4.7940770e-03 2.3362150e+00 1.1199995e-02
 6.2000000e+07 4.6095800e-03 2.4031750e+00 1.1077627e-02
 6.4000000e+07 4.4374820e-03 2.4668770e+00 1.0946722e-02
 6.6000000e+07 4.2753840e-03 2.5273540e+00 1.0805409e-02
 6.8000000e+07 4.1228850e-03 2.5897110e+00 1.0677081e-02
 7.0000000e+07 3.9784870e-03 2.6451420e+00 1.0523663e-02
 7.2000000e+07 3.8418880e-03 2.6984850e+00 1.0367277e-02
 7.4000000e+07 3.7118890e-03 2.7498540e+00 1.0207153e-02
 7.6000000e+07 3.5883910e-03 2.7989040e+00 1.0043562e-02
 7.8000000e+07 3.4705910e-03 2.8455020e+00 9.8755736e-03
 8.0000000e+07 3.3582920e-03 2.8899520e+00 9.7053027e-03
 8.5000000e+07 3.0987940e-03 2.9921040e+00 9.2719139e-03
 9.0000000e+07 2.8661940e-03 3.0842180e+00 8.8399671e-03
 9.5000000e+07 2.6569960e-03 3.1694040e+00 8.4210938e-03
 1.0000000e+08 2.4673960e-03 3.2491830e+00 8.0170211e-03
 1.0500000e+08 2.2958970e-03 3.3240380e+00 7.6316489e-03
 1.1000000e+08 2.1401980e-03 3.3937080e+00 7.2632071e-03
 1.1500000e+08 1.9984980e-03 3.4592690e+00 6.9133422e-03
 1.2000000e+08 1.8693980e-03 3.5208510e+00 6.5818718e-03
 1.3000000e+08 1.6433990e-03 3.6337080e+00 5.9716321e-03
 1.4000000e+08 1.4534990e-03 3.7313680e+00 5.4235397e-03


#           NR             1
#           NE            71
#         LANG             2  1: Legendre, 2:KM systematics, 11-15: tabulated
#          LEP             1  secondary energy interpolation
#           E1 7.5925000e+06  incident energy
#          NEP             2  number of secondary energy points
#           ND             0  number of discrete lines
#           NA             1  number of angular parameters
# Energy       PL( 0)        PL( 1)       
 0.0000000e+00 1.0000000e+05 0.0000000e+00
 1.0000000e-05 0.0000000e+00 0.0000000e+00


#           E1 7.9330000e+06  incident energy
#          NEP             2  number of secondary energy points
#           ND             0  number of discrete lines
#           NA             1  number of angular parameters
# Energy       PL( 0)        PL( 1)       
 0.0000000e+00 1.0000000e+05 0.0000000e+00
 1.0000000e-05 0.0000000e+00 0.0000000e+00


#           E1 9.0000000e+06  incident energy
#          NEP             3  number of secondary energy points
#           ND             0  number of discrete lines
#           NA             1  number of angular parameters
# Energy       PL( 0)        PL( 1)       
 0.0000000e+00 0.0000000e+00 0.0000000e+00
 7.3239360e+05 2.0480790e-06 2.3490000e-02
 1.2206560e+06 0.0000000e+00 0.0000000e+00


#           E1 1.0000000e+07  incident energy
#          NEP             5  number of secondary energy points
#           ND             0  number of discrete lines
#           NA             1  number of angular parameters
# Energy       PL( 0)        PL( 1)       
 0.0000000e+00 1.2798790e-06 1.3100000e-02
 7.3239360e+05 0.0000000e+00 0.0000000e+00
 1.2206560e+06 0.0000000e+00 0.0000000e+00
 1.7089180e+06 1.2825990e-07 1.3880000e-01
 2.1971810e+06 0.0000000e+00 0.0000000e+00


#           E1 1.1000000e+07  incident energy
#          NEP             7  number of secondary energy points
#           ND             0  number of discrete lines
#           NA             1  number of angular parameters
# Energy       PL( 0)        PL( 1)       
 0.0000000e+00 8.8458510e-07 1.7320000e-02
 7.3239360e+05 4.2832020e-08 5.0480000e-01
 1.2206560e+06 6.0018650e-07 4.9610000e-02
 1.7089180e+06 0.0000000e+00 0.0000000e+00
 2.1971810e+06 0.0000000e+00 0.0000000e+00
 2.6854430e+06 7.8182830e-08 1.9300000e-01
 3.1737060e+06 0.0000000e+00 0.0000000e+00


#           E1 1.2000000e+07  incident energy
#          NEP             9  number of secondary energy points
#           ND             0  number of discrete lines
#           NA             1  number of angular parameters
# Energy       PL( 0)        PL( 1)       
 0.0000000e+00 1.9963500e-07 3.2400000e-02
 7.3239360e+05 5.1824480e-07 4.9370000e-02
 1.2206560e+06 8.1877470e-07 6.9920010e-02
 1.7089180e+06 4.1877460e-08 5.2970000e-01
 2.1971810e+06 3.2711990e-07 7.7310000e-02
 2.6854430e+06 0.0000000e+00 0.0000000e+00
 3.1737060e+06 0.0000000e+00 0.0000000e+00
 3.6619680e+06 4.2609440e-08 2.8200000e-01
 4.1502300e+06 0.0000000e+00 0.0000000e+00


#           E1 1.3000000e+07  incident energy
#          NEP            11  number of secondary energy points
#           ND             0  number of discrete lines
#           NA             1  number of angular parameters
# Energy       PL( 0)        PL( 1)       
 0.0000000e+00 2.8075400e-07 6.8559990e-02
 7.3239360e+05 3.5499120e-07 7.9430000e-02
 1.2206560e+06 2.4953930e-07 8.7540000e-02
 1.7089180e+06 3.4133530e-07 8.3300000e-02
 2.1971810e+06 4.5583690e-07 1.2290000e-01
 2.6854430e+06 3.1808610e-08 6.0490000e-01
 3.1737060e+06 1.6704080e-07 1.2130000e-01
 3.6619680e+06 0.0000000e+00 0.0000000e+00
 4.1502300e+06 0.0000000e+00 0.0000000e+00
 4.6384930e+06 2.6396010e-08 3.6150000e-01
 5.1267560e+06 0.0000000e+00 0.0000000e+00


#           E1 1.4000000e+07  incident energy
#          NEP            13  number of secondary energy points
#           ND             0  number of discrete lines
#           NA             1  number of angular parameters
# Energy       PL( 0)        PL( 1)       
 0.0000000e+00 2.6366690e-07 9.2460000e-02
 7.3239360e+05 3.2801230e-07 1.2310000e-01
 1.2206560e+06 2.6344450e-07 1.5260000e-01
 1.7089180e+06 2.8155160e-07 1.1710000e-01
 2.1971810e+06 1.7898450e-07 1.2240000e-01
 2.6854430e+06 2.0600320e-07 1.2510000e-01
 3.1737060e+06 2.5977610e-07 1.8710000e-01
 3.6619680e+06 2.3358600e-08 6.8600000e-01
 4.1502300e+06 9.4148270e-08 1.7320000e-01
 4.6384930e+06 0.0000000e+00 0.0000000e+00
 5.1267560e+06 0.0000000e+00 0.0000000e+00
 5.6150180e+06 1.7299540e-08 4.4550000e-01
 6.1032800e+06 0.0000000e+00 0.0000000e+00


#           E1 1.5000000e+07  incident energy
#          NEP            15  number of secondary energy points
#           ND             0  number of discrete lines
#           NA             1  number of angular parameters
# Energy       PL( 0)        PL( 1)       
 0.0000000e+00 2.4485070e-07 1.2030000e-01
 7.3239360e+05 3.1006220e-07 1.6290000e-01
 1.2206560e+06 2.9654060e-07 1.7270000e-01
 1.7089180e+06 2.6047270e-07 1.7990000e-01
 2.1971810e+06 1.7691080e-07 2.3020000e-01
 2.6854430e+06 1.8250340e-07 1.6990000e-01
 3.1737060e+06 1.0923410e-07 1.7730000e-01
 3.6619680e+06 1.1496350e-07 1.8990000e-01
 4.1502300e+06 1.4753000e-07 2.7660000e-01
 4.6384930e+06 1.7307060e-08 7.6630000e-01
 5.1267560e+06 5.3813670e-08 2.4560000e-01
 5.6150180e+06 0.0000000e+00 0.0000000e+00
 6.1032800e+06 0.0000000e+00 0.0000000e+00
 6.5915430e+06 1.1464890e-08 5.4630000e-01
 7.0798050e+06 0.0000000e+00 0.0000000e+00


#           E1 1.6000000e+07  incident energy
#          NEP            17  number of secondary energy points
#           ND             0  number of discrete lines
#           NA             1  number of angular parameters
# Energy       PL( 0)        PL( 1)       
 0.0000000e+00 2.2784910e-07 1.4670000e-01
 7.3239360e+05 2.9293480e-07 1.9860000e-01
 1.2206560e+06 2.8260700e-07 2.1300000e-01
 1.7089180e+06 2.5151570e-07 2.2790000e-01
 2.1971810e+06 2.1127500e-07 2.4230000e-01
 2.6854430e+06 1.7061750e-07 2.5380000e-01
 3.1737060e+06 1.1250190e-07 3.2040000e-01
 3.6619680e+06 1.1271420e-07 2.3830000e-01
 4.1502300e+06 6.5582880e-08 2.5030000e-01
 4.6384930e+06 6.5417040e-08 2.7680000e-01
 5.1267560e+06 8.8048440e-08 3.8420000e-01
 5.6150180e+06 1.3176280e-08 8.2780000e-01
 6.1032800e+06 3.2022480e-08 3.3350000e-01
 6.5915430e+06 0.0000000e+00 0.0000000e+00
 7.0798050e+06 0.0000000e+00 0.0000000e+00
 7.5680680e+06 7.8922090e-09 6.4220000e-01
 8.0563300e+06 0.0000000e+00 0.0000000e+00


#           E1 1.6500000e+07  incident energy
#          NEP            18  number of secondary energy points
#           ND             0  number of discrete lines
#           NA             1  number of angular parameters
# Energy       PL( 0)        PL( 1)       
 0.0000000e+00 2.2026520e-07 1.5800000e-01
 7.3239360e+05 2.8526750e-07 2.1430000e-01
 1.2206560e+06 2.7631760e-07 2.3080000e-01
 1.7089180e+06 2.4708450e-07 2.4800000e-01
 2.1971810e+06 2.0893020e-07 2.6590000e-01
 2.6854430e+06 1.7045930e-07 2.8320000e-01
 3.1737060e+06 1.3563230e-07 2.9720000e-01
 3.6619680e+06 9.0611430e-08 3.6820000e-01
 4.1502300e+06 8.8700880e-08 2.7910000e-01
 4.6384930e+06 5.1309670e-08 2.9330000e-01
 5.1267560e+06 5.0384780e-08 3.2690000e-01
 5.6150180e+06 6.9658130e-08 4.4150000e-01
 6.1032800e+06 1.1584100e-08 8.5290000e-01
 6.5915430e+06 2.5102870e-08 3.8250000e-01
 7.0798050e+06 0.0000000e+00 0.0000000e+00
 7.5680680e+06 0.0000000e+00 0.0000000e+00
 8.0563300e+06 6.6378590e-09 6.8660000e-01
 8.5445920e+06 0.0000000e+00 0.0000000e+00


#           E1 1.7000000e+07  incident energy
#          NEP            19  number of secondary energy points
#           ND             0  number of discrete lines
#           NA             1  number of angular parameters
# Energy       PL( 0)        PL( 1)       
 0.0000000e+00 2.1312130e-07 1.6800000e-01
 7.3239360e+05 2.7799150e-07 2.2860000e-01
 1.2206560e+06 2.7039880e-07 2.4730000e-01
 1.7089180e+06 2.4288860e-07 2.6670000e-01
 2.1971810e+06 2.0652490e-07 2.8720000e-01
 2.6854430e+06 1.6980700e-07 3.0840000e-01
 3.1737060e+06 1.3670690e-07 3.2870000e-01
 3.6619680e+06 1.0813950e-07 3.4510000e-01
 4.1502300e+06 7.3974970e-08 4.1690000e-01
 4.6384930e+06 7.0224370e-08 3.2520000e-01
 5.1267560e+06 4.0527520e-08 3.4090000e-01
 5.6150180e+06 3.9428490e-08 3.8080000e-01
 6.1032800e+06 5.5997610e-08 5.0040000e-01
 6.5915430e+06 1.0244790e-08 8.7540000e-01
 7.0798050e+06 1.9906020e-08 4.3520000e-01
 7.5680680e+06 0.0000000e+00 0.0000000e+00
 8.0563300e+06 0.0000000e+00 0.0000000e+00
 8.5445920e+06 5.6360140e-09 7.2910000e-01
 9.0328550e+06 0.0000000e+00 0.0000000e+00


#           E1 1.7500000e+07  incident energy
#          NEP            20  number of secondary energy points
#           ND             0  number of discrete lines
#           NA             1  number of angular parameters
# Energy       PL( 0)        PL( 1)       
 0.0000000e+00 2.0625000e-07 1.7720000e-01
 7.3239360e+05 2.7089390e-07 2.4200000e-01
 1.2206560e+06 2.6465630e-07 2.6310000e-01
 1.7089180e+06 2.3883440e-07 2.8470000e-01
 2.1971810e+06 2.0414250e-07 3.0760000e-01
 2.6854430e+06 1.6894750e-07 3.3180000e-01
 3.1737060e+06 1.3725030e-07 3.5630000e-01
 3.6619680e+06 1.1003740e-07 3.7940000e-01
 4.1502300e+06 8.6967280e-08 3.9820000e-01
 4.6384930e+06 6.1403480e-08 4.6600000e-01
 5.1267560e+06 5.6098700e-08 3.7710000e-01
 5.6150180e+06 3.2367380e-08 3.9380000e-01
 6.1032800e+06 3.1356870e-08 4.3890000e-01
 6.5915430e+06 4.5775300e-08 5.6060000e-01
 7.0798050e+06 9.1434750e-09 8.9609990e-01
 7.5680680e+06 1.5987930e-08 4.9170000e-01
 8.0563300e+06 0.0000000e+00 0.0000000e+00
 8.5445920e+06 0.0000000e+00 0.0000000e+00
 9.0328550e+06 4.8414360e-09 7.6950000e-01
 9.5211170e+06 0.0000000e+00 0.0000000e+00


#           E1 1.8000000e+07  incident energy
#          NEP            21  number of secondary energy points
#           ND             0  number of discrete lines
#           NA             1  number of angular parameters
# Energy       PL( 0)        PL( 1)       
 0.0000000e+00 2.0110610e-07 2.0080000e-01
 7.3239360e+05 2.6476090e-07 2.6590000e-01
 1.2206560e+06 2.5853820e-07 2.8570000e-01
 1.7089180e+06 2.3395220e-07 3.0810000e-01
 2.1971810e+06 2.0095460e-07 3.3290000e-01
 2.6854430e+06 1.6739310e-07 3.5970000e-01
 3.1737060e+06 1.3711380e-07 3.8750000e-01
 3.6619680e+06 1.1115690e-07 4.1520000e-01
 4.1502300e+06 8.9260430e-08 4.4100000e-01
 4.6384930e+06 7.0727720e-08 4.6180000e-01
 5.1267560e+06 5.2033240e-08 5.1900000e-01
 5.6150180e+06 4.5257570e-08 4.4040000e-01
 6.1032800e+06 2.6141460e-08 4.5740000e-01
 6.5915430e+06 2.5349490e-08 5.0620000e-01
 7.0798050e+06 3.8188840e-08 6.2650000e-01
 7.5680680e+06 8.3100250e-09 9.1640010e-01
 8.0563300e+06 1.3040540e-08 5.5680000e-01
 8.5445920e+06 0.0000000e+00 0.0000000e+00
 9.0328550e+06 0.0000000e+00 0.0000000e+00
 9.5211170e+06 4.2408520e-09 8.1100000e-01
 1.0009380e+07 0.0000000e+00 0.0000000e+00


#           E1 1.8500000e+07  incident energy
#          NEP            22  number of secondary energy points
#           ND             0  number of discrete lines
#           NA             1  number of angular parameters
# Energy       PL( 0)        PL( 1)       
 0.0000000e+00 1.9500830e-07 2.1640000e-01
 7.3239360e+05 2.5830010e-07 2.8580000e-01
 1.2206560e+06 2.5272940e-07 3.0700000e-01
 1.7089180e+06 2.2945380e-07 3.3080000e-01
 2.1971810e+06 1.9800500e-07 3.5730000e-01
 2.6854430e+06 1.6592690e-07 3.8620000e-01
 3.1737060e+06 1.3693050e-07 4.1670000e-01
 3.6619680e+06 1.1206030e-07 4.4760000e-01
 4.1502300e+06 9.1131540e-08 4.7790000e-01
 4.6384930e+06 7.3517700e-08 5.0550000e-01
 5.1267560e+06 5.8494910e-08 5.2760000e-01
 5.6150180e+06 4.4909730e-08 5.6830000e-01
 6.1032800e+06 3.7096700e-08 5.0680000e-01
 6.5915430e+06 2.1464670e-08 5.2340000e-01
 7.0798050e+06 2.0903970e-08 5.7420000e-01
 7.5680680e+06 3.2460790e-08 6.8880000e-01
 8.0563300e+06 7.5982710e-09 9.3360000e-01
 8.5445920e+06 1.0823560e-08 6.2150000e-01
 9.0328550e+06 0.0000000e+00 0.0000000e+00
 9.5211170e+06 0.0000000e+00 0.0000000e+00
 1.0009380e+07 3.7586410e-09 8.4730000e-01
 1.0497640e+07 0.0000000e+00 0.0000000e+00


#           E1 1.9000000e+07  incident energy
#          NEP            23  number of secondary energy points
#           ND             0  number of discrete lines
#           NA             1  number of angular parameters
# Energy       PL( 0)        PL( 1)       
 0.0000000e+00 1.8878090e-07 2.3340000e-01
 7.3239360e+05 2.5196620e-07 3.0740000e-01
 1.2206560e+06 2.4691750e-07 3.3070000e-01
 1.7089180e+06 2.2477850e-07 3.5610000e-01
 2.1971810e+06 1.9479480e-07 3.8420000e-01
 2.6854430e+06 1.6419430e-07 4.1490000e-01
 3.1737060e+06 1.3648620e-07 4.4750000e-01
 3.6619680e+06 1.1269090e-07 4.8090000e-01
 4.1502300e+06 9.2663620e-08 5.1410000e-01
 4.6384930e+06 7.5852120e-08 5.4590000e-01
 5.1267560e+06 6.1591500e-08 5.7420000e-01
 5.6150180e+06 4.9249220e-08 5.9670000e-01
 6.1032800e+06 3.9522450e-08 6.1480000e-01
 6.5915430e+06 3.0942600e-08 5.7740000e-01
 7.0798050e+06 1.7953980e-08 5.9300000e-01
 7.5680680e+06 1.7590450e-08 6.4349990e-01
 8.0563300e+06 2.8145420e-08 7.4830000e-01
 8.5445920e+06 7.0243170e-09 9.4850000e-01
 9.0328550e+06 9.1606460e-09 6.8640000e-01
 9.5211170e+06 0.0000000e+00 0.0000000e+00
 1.0009380e+07 0.0000000e+00 0.0000000e+00
 1.0497640e+07 3.3828030e-09 8.7970000e-01
 1.0985900e+07 0.0000000e+00 0.0000000e+00


#           E1 1.9500000e+07  incident energy
#          NEP            24  number of secondary energy points
#           ND             0  number of discrete lines
#           NA             1  number of angular parameters
# Energy       PL( 0)        PL( 1)       
 0.0000000e+00 2.0438180e-07 2.1980000e-01
 7.3239360e+05 2.4105910e-07 3.2950000e-01
 1.2206560e+06 2.3685290e-07 3.5500000e-01
 1.7089180e+06 2.1607440e-07 3.8250000e-01
 2.1971810e+06 1.8776020e-07 4.1280000e-01
 2.6854430e+06 1.5915600e-07 4.4490000e-01
 3.1737060e+06 1.3322020e-07 4.7900000e-01
 3.6619680e+06 1.1092220e-07 5.1420000e-01
 4.1502300e+06 9.2137280e-08 5.4939990e-01
 4.6384930e+06 7.6370900e-08 5.8360000e-01
 5.1267560e+06 6.3033050e-08 6.1550000e-01
 5.6150180e+06 5.1548930e-08 6.4340000e-01
 6.1032800e+06 4.1436060e-08 6.6520000e-01
 6.5915430e+06 3.4706050e-08 6.5620000e-01
 7.0798050e+06 2.5837600e-08 6.4760000e-01
 7.5680680e+06 1.5008260e-08 6.6220000e-01
 8.0563300e+06 1.4811200e-08 7.1010000e-01
 8.5445920e+06 2.4374970e-08 8.0190000e-01
 9.0328550e+06 6.4194070e-09 9.6080000e-01
 9.5211170e+06 7.7541260e-09 7.4760000e-01
 1.0009380e+07 0.0000000e+00 0.0000000e+00
 1.0497640e+07 0.0000000e+00 0.0000000e+00
 1.0985900e+07 3.0234040e-09 9.0720000e-01
 1.1474170e+07 0.0000000e+00 0.0000000e+00


#           E1 2.0000000e+07  incident energy
#          NEP            25  number of secondary energy points
#           ND             0  number of discrete lines
#           NA             1  number of angular parameters
# Energy       PL( 0)        PL( 1)       
 0.0000000e+00 2.7182050e-07 1.5960000e-01
 7.3239360e+05 2.1970780e-07 3.5150000e-01
 1.2206560e+06 2.1694770e-07 3.7860000e-01
 1.7089180e+06 1.9861560e-07 4.0800000e-01
 2.1971810e+06 1.7255160e-07 4.4160000e-01
 2.6854430e+06 1.4701310e-07 4.7510000e-01
 3.1737060e+06 1.2385870e-07 5.1030000e-01
 3.6619680e+06 1.0393830e-07 5.4660000e-01
 4.1502300e+06 8.7142850e-08 5.8300000e-01
 4.6384930e+06 7.3037060e-08 6.1850000e-01
 5.1267560e+06 6.1109350e-08 6.5210000e-01
 5.6150180e+06 5.0868190e-08 6.8260000e-01
 6.1032800e+06 4.1895350e-08 7.0870000e-01
