#    [ 2431 :  6 :   5 ]    24 -  52
# Energy and angle distribution
#           NK           217  number of subsections

#   Subsection             0
#          ZAP             1
#          LIP             0  product modifier
#          LAW             1  distribution law
#           NP            67  yield energy points
#   Energy[eV]  CrossSec [b]  Multiplicity  CrossSec x M
 1.0000000e+06 3.7465110e-06 0.0000000e+00 0.0000000e+00
 1.2039160e+07 7.4441961e-03 0.0000000e+00 0.0000000e+00
 1.2500000e+07 8.6079830e-03 8.1360070e-01 7.0034610e-03
 1.3000000e+07 1.0385170e-02 9.7533120e-01 1.0128980e-02
 1.3500000e+07 1.2876490e-02 9.6016460e-01 1.2363550e-02
 1.4000000e+07 1.6343390e-02 9.3310200e-01 1.5250050e-02
 1.4500000e+07 2.1154350e-02 8.9693750e-01 1.8974130e-02
 1.5000000e+07 2.7805350e-02 8.7479530e-01 2.4323989e-02
 1.5500000e+07 3.6849700e-02 8.8094040e-01 3.2462389e-02
 1.6000000e+07 4.8553470e-02 8.7514200e-01 4.2491181e-02
 1.6500000e+07 6.2031870e-02 8.6962310e-01 5.3944347e-02
 1.7000000e+07 7.4342660e-02 8.6159330e-01 6.4053138e-02
 1.7500000e+07 8.1822420e-02 8.5460880e-01 6.9926160e-02
 1.8000000e+07 8.3973750e-02 8.4686430e-01 7.1114371e-02
 1.8500000e+07 8.3958710e-02 8.4338810e-01 7.0809777e-02
 1.9000000e+07 8.4687680e-02 8.3932370e-01 7.1080377e-02
 1.9500000e+07 8.6377140e-02 8.3697920e-01 7.2295870e-02
 2.0000000e+07 8.6975930e-02 8.3598440e-01 7.2710521e-02
 2.1000000e+07 7.7429170e-02 8.3903090e-01 6.4965466e-02
 2.2000000e+07 5.8891130e-02 9.2828360e-01 5.4667670e-02
 2.3000000e+07 4.2869990e-02 1.1166950e+00 4.7872703e-02
 2.4000000e+07 3.1867010e-02 1.2858520e+00 4.0976259e-02
 2.5000000e+07 2.4574600e-02 1.4059470e+00 3.4550585e-02
 2.6000000e+07 1.9631900e-02 1.4608830e+00 2.8679909e-02
 2.7000000e+07 1.6161970e-02 1.4873340e+00 2.4038247e-02
 2.8000000e+07 1.3641010e-02 1.4961740e+00 2.0409324e-02
 2.9000000e+07 1.1753990e-02 1.4937190e+00 1.7557158e-02
 3.0000000e+07 1.0305750e-02 1.4823580e+00 1.5276811e-02
 3.2000000e+07 8.2674120e-03 1.4546780e+00 1.2026422e-02
 3.4000000e+07 6.9418190e-03 1.4172870e+00 9.8385498e-03
 3.6000000e+07 6.0443720e-03 1.4035780e+00 8.4837476e-03
 3.8000000e+07 5.4213150e-03 1.4489220e+00 7.8550626e-03
 4.0000000e+07 4.9823480e-03 1.5141680e+00 7.5441119e-03
 4.2000000e+07 4.6707960e-03 1.5730310e+00 7.3473069e-03
 4.4000000e+07 4.4492220e-03 1.6094270e+00 7.1606980e-03
 4.6000000e+07 4.2919270e-03 1.6318420e+00 7.0037467e-03
 4.8000000e+07 4.1807760e-03 1.6560070e+00 6.9233943e-03
 5.0000000e+07 4.1027160e-03 1.6765320e+00 6.8783347e-03
 5.2000000e+07 4.0482250e-03 1.7024130e+00 6.8917509e-03
 5.4000000e+07 4.0102920e-03 1.7324530e+00 6.9476424e-03
 5.6000000e+07 3.9837260e-03 1.7636340e+00 7.0258346e-03
 5.8000000e+07 3.9646720e-03 1.7973740e+00 7.1259984e-03
 6.0000000e+07 3.9502650e-03 1.8283040e+00 7.2222853e-03
 6.2000000e+07 3.9383780e-03 1.8596800e+00 7.3241228e-03
 6.4000000e+07 3.9274440e-03 1.8899760e+00 7.4227749e-03
 6.6000000e+07 3.9163110e-03 1.9195400e+00 7.5175156e-03
 6.8000000e+07 3.9041490e-03 1.9544300e+00 7.6303859e-03
 7.0000000e+07 3.8903700e-03 1.9840430e+00 7.7186614e-03
 7.2000000e+07 3.8745700e-03 2.0227420e+00 7.8372555e-03
 7.4000000e+07 3.8564890e-03 2.0547410e+00 7.9240861e-03
 7.6000000e+07 3.8359740e-03 2.0389460e+00 7.8213438e-03
 7.8000000e+07 3.8129550e-03 2.0717480e+00 7.8994819e-03
 8.0000000e+07 3.7874280e-03 2.1012710e+00 7.9584126e-03
 8.5000000e+07 3.7130100e-03 2.1806590e+00 8.0968087e-03
 9.0000000e+07 3.6248210e-03 2.2577080e+00 8.1837874e-03
 9.5000000e+07 3.5251620e-03 2.3294860e+00 8.2118155e-03
 1.0000000e+08 3.4166890e-03 2.4896160e+00 8.5062436e-03
 1.1000000e+08 3.1844260e-03 2.6365520e+00 8.3959047e-03
 1.2000000e+08 2.9499980e-03 2.7830550e+00 8.2100067e-03
 1.3000000e+08 2.7340700e-03 2.9203650e+00 7.9844823e-03
 1.4000000e+08 2.5556180e-03 3.0576580e+00 7.8142058e-03
 1.5000000e+08 2.3339020e-03 3.1943640e+00 7.4553325e-03
 1.6000000e+08 2.1424070e-03 3.3204130e+00 7.1136761e-03
 1.7000000e+08 1.9756680e-03 3.4560230e+00 6.8279540e-03
 1.8000000e+08 1.8294320e-03 3.7346670e+00 6.8323193e-03
 1.9000000e+08 1.7003400e-03 3.8634540e+00 6.5691854e-03
 2.0000000e+08 1.5857090e-03 3.9896560e+00 6.3264334e-03


#           NR             1
#           NE            29
#         LANG             1  1: Legendre, 2:KM systematics, 11-15: tabulated
#          LEP             2  secondary energy interpolation
#           E1 1.0000000e+06  incident energy
#          NEP             3  number of secondary energy points
#           ND             0  number of discrete lines
#           NA             2  number of angular parameters
# Energy       PL( 0)        PL( 1)        PL( 2)       
 0.0000000e+00 0.0000000e+00 0.0000000e+00 0.0000000e+00
 5.0000000e-01 2.0000000e+00 0.0000000e+00 0.0000000e+00
 1.0000000e+00 0.0000000e+00 0.0000000e+00 0.0000000e+00


#           E1 1.2039160e+07  incident energy
#          NEP             3  number of secondary energy points
#           ND             0  number of discrete lines
#           NA             2  number of angular parameters
# Energy       PL( 0)        PL( 1)        PL( 2)       
 0.0000000e+00 0.0000000e+00 0.0000000e+00 0.0000000e+00
 5.0000000e-01 2.0000000e+00 0.0000000e+00 0.0000000e+00
 1.0000000e+00 0.0000000e+00 0.0000000e+00 0.0000000e+00


#           E1 1.4000000e+07  incident energy
#          NEP            22  number of secondary energy points
#           ND             0  number of discrete lines
#           NA             2  number of angular parameters
# Energy       PL( 0)        PL( 1)        PL( 2)       
 0.0000000e+00 0.0000000e+00 0.0000000e+00 0.0000000e+00
 2.5000000e+04 3.5700280e-07 3.8984800e-23 -5.635640e-23
 1.0000000e+05 1.4280030e-06 9.2851200e-11 2.6896200e-12
 2.0000000e+05 1.1781200e-11 -2.129060e-28 -6.974190e-28
 3.0000000e+05 1.0828100e-11 -1.956810e-28 -6.409930e-28
 4.0000000e+05 1.0439340e-07 -5.424520e-24 1.0299700e-24
 5.0000000e+05 9.5004300e-11 1.0708300e-27 -5.624010e-27
 6.0000000e+05 5.5767750e-07 -8.327460e-24 -1.650650e-23
 7.0000000e+05 5.5876400e-12 -3.712880e-28 -6.064190e-28
 8.0000000e+05 1.7211910e-09 -1.336280e-25 -5.094510e-26
 9.0000000e+05 1.9714000e-12 -2.281440e-28 5.8350800e-29
 1.0000000e+06 1.2754200e-12 -8.474910e-29 -1.384190e-28
 1.1000000e+06 8.5067400e-13 1.0043300e-29 -6.714360e-29
 1.2000000e+06 7.0931510e-06 -1.281850e-22 -4.198960e-22
 1.3000000e+06 3.6819100e-13 6.4133400e-30 -1.816330e-29
 1.4000000e+06 2.2344200e-13 -4.037970e-30 -1.322720e-29
 1.5000000e+06 1.1635500e-13 -8.982520e-30 -2.295980e-30
 1.6000000e+06 5.6904300e-14 -9.279770e-30 -8.982900e-30
 1.7000000e+06 2.2670400e-14 -1.009050e-30 1.7893700e-30
 1.8000000e+06 6.4672600e-15 -4.297370e-31 -7.018830e-31
 1.9000000e+06 7.8325100e-16 -1.378940e-31 7.7277400e-33
 2.0000000e+06 1.6298490e-06 7.0354400e-23 -1.929660e-22


#           E1 1.6000000e+07  incident energy
#          NEP            39  number of secondary energy points
#           ND             0  number of discrete lines
#           NA             4  number of angular parameters
# Energy       PL( 0)        PL( 1)        PL( 2)        PL( 3)        PL( 4)       
 0.0000000e+00 0.0000000e+00 0.0000000e+00 0.0000000e+00 0.0000000e+00 0.0000000e+00
 2.6666670e+04 4.5564440e-08 1.6621700e-25 4.4955000e-25 -1.599370e-25 1.4610400e-24
 1.0666670e+05 1.8210190e-07 2.4485400e-10 7.6469800e-12 1.7041000e-13 3.0279800e-15
 2.1333330e+05 2.0978090e-07 2.9257200e-10 9.2342800e-12 2.0825800e-13 3.4635400e-15
 3.2000000e+05 2.2785140e-07 3.3037800e-10 1.0537800e-11 2.4026400e-13 4.5544800e-15
 4.2666670e+05 2.4435860e-07 3.6853300e-10 1.1877400e-11 2.7365800e-13 4.9801300e-15
 5.3333330e+05 1.3524080e-07 4.5863100e-10 1.4943100e-11 3.4809600e-13 6.5224000e-15
 6.4000000e+05 4.8311430e-07 2.3855500e-10 7.8280200e-12 1.8529900e-13 1.0244500e-14
 7.4666670e+05 4.6512470e-07 6.6864600e-10 2.2188900e-11 5.2441900e-13 9.8734100e-15
 8.5333330e+05 1.2643950e-06 5.9451600e-10 1.9970700e-11 4.9178000e-13 4.0320100e-15
 9.6000000e+05 5.0602460e-07 4.0519600e-10 1.3745400e-11 3.3379300e-13 5.6886100e-15
 1.0666670e+06 9.2527980e-07 5.3216200e-10 1.8189700e-11 4.3770800e-13 6.4449500e-15
 1.1733330e+06 7.1942630e-07 6.8496000e-10 2.3669600e-11 5.8650500e-13 1.2687100e-14
 1.2800000e+06 1.5569020e-07 7.3026700e-10 2.5453500e-11 6.3402300e-13 1.2346500e-14
 1.3866670e+06 9.6786100e-12 -1.120080e-27 2.8647400e-28 1.4994500e-28 -1.432370e-28
 1.4933330e+06 1.3772340e-08 8.1058100e-10 2.8767100e-11 7.2957300e-13 1.4391400e-14
 1.6000000e+06 2.1271190e-07 7.5216700e-10 2.7036800e-11 6.9458200e-13 1.3400900e-14
 1.7066670e+06 1.1214310e-08 6.7665100e-10 2.4540000e-11 6.3597300e-13 1.2807200e-14
 1.8133330e+06 4.1860200e-12 1.8069500e-28 -4.956030e-28 -1.563450e-29 -2.581270e-28
 1.9200000e+06 4.6688440e-07 5.3461900e-10 1.9814700e-11 5.2687100e-13 1.2680200e-14
 2.0266670e+06 7.7174960e-07 5.1807900e-10 1.9372300e-11 5.2057600e-13 8.9110600e-15
 2.1333330e+06 1.9442400e-12 -4.692840e-29 1.9182300e-29 -5.304750e-29 3.3569100e-29
 2.2400000e+06 1.4700500e-12 1.6569500e-29 -8.702320e-29 -3.373940e-29 -7.977130e-29
 2.3466670e+06 1.0846900e-12 -1.909630e-28 1.0701800e-29 -6.951600e-30 1.2039500e-28
 2.4533330e+06 2.6799410e-07 1.3613300e-11 5.2422000e-13 1.4512100e-14 -7.954290e-17
 2.5600000e+06 5.3316440e-07 -2.557960e-23 5.2603300e-24 4.2238900e-24 -5.391840e-23
 2.6666670e+06 4.6174800e-13 -2.399350e-29 4.5557100e-30 -9.849170e-30 3.0751100e-29
 2.7733330e+06 1.4775100e-08 -2.409480e-24 -2.332400e-24 1.0796300e-25 1.1662000e-24
 2.8800000e+06 2.3111000e-13 -2.777430e-30 0.0000000e+00 1.1085600e-30 -8.550690e-30
 2.9866670e+06 1.4639900e-13 -6.516160e-30 1.1555200e-29 -8.708260e-31 6.1387100e-30
 3.0933330e+06 8.3577000e-14 -6.452070e-30 -1.649180e-30 2.1109700e-30 7.6274600e-30
 3.2000000e+06 1.3990790e-06 -2.747020e-23 -6.901820e-23 -4.167130e-23 -1.069780e-22
 3.3066670e+06 3.2636600e-14 -2.533810e-30 -9.660010e-31 4.6135300e-31 3.0590000e-30
 3.4133330e+06 1.8265700e-14 -9.491290e-31 1.8021400e-31 -3.896110e-31 1.2164400e-30
 3.5200000e+06 8.9278100e-15 -6.571450e-31 -9.689230e-31 4.9441200e-31 1.3432800e-30
 3.6266670e+06 3.5464400e-15 -4.104200e-31 1.0497000e-31 5.4943000e-32 -5.248510e-32
 3.7333330e+06 9.9076500e-16 1.1167300e-32 -5.865070e-32 -2.273930e-32 -5.376320e-32
 3.8400000e+06 1.1703500e-16 -7.776730e-33 -1.270160e-32 6.0731900e-33 1.9918400e-32
 3.9466670e+06 3.3044310e-07 1.2054400e-24 3.2602300e-24 -1.159900e-24 1.0595800e-23


#           E1 1.8000000e+07  incident energy
#          NEP            52  number of secondary energy points
#           ND             0  number of discrete lines
#           NA             4  number of angular parameters
# Energy       PL( 0)        PL( 1)        PL( 2)        PL( 3)        PL( 4)       
 0.0000000e+00 0.0000000e+00 0.0000000e+00 0.0000000e+00 0.0000000e+00 0.0000000e+00
 3.0000000e+04 4.2726740e-08 -1.031300e-24 4.2155200e-25 -1.165780e-24 7.3771700e-25
 1.2000000e+05 1.7070800e-07 3.7252600e-10 1.2355800e-11 2.9270200e-13 5.2797900e-15
 2.4000000e+05 1.9650540e-07 4.5437600e-10 1.5249600e-11 3.6693000e-13 6.6085200e-15
 3.6000000e+05 2.1475500e-07 5.2846500e-10 1.7942200e-11 4.3292900e-13 1.1155900e-14
 4.8000000e+05 2.3241570e-07 6.0983000e-10 2.0955100e-11 5.1737700e-13 7.3233500e-15
 6.0000000e+05 2.5043710e-07 7.0039300e-10 2.4346500e-11 6.0169400e-13 1.0319700e-14
 7.2000000e+05 2.6805200e-07 7.9740600e-10 2.8033500e-11 7.0353500e-13 1.5136400e-14
 8.4000000e+05 2.8396920e-07 8.9606200e-10 3.1860800e-11 8.1077700e-13 1.6751200e-14
 9.6000000e+05 2.9700020e-07 9.9109900e-10 3.5636000e-11 9.1330500e-13 2.1061900e-14
 1.0800000e+06 3.0631350e-07 1.0778940e-09 3.9189100e-11 1.0161000e-12 2.0491600e-14
 1.2000000e+06 3.1153890e-07 1.1530650e-09 4.2383900e-11 1.1104000e-12 2.1247700e-14
 1.3200000e+06 3.1272440e-07 1.2146020e-09 4.5130100e-11 1.2013400e-12 2.4711400e-14
 1.4400000e+06 3.1021950e-07 1.2617690e-09 4.7397600e-11 1.2743900e-12 2.5974900e-14
 1.5600000e+06 3.0455200e-07 1.2947390e-09 4.9160800e-11 1.3335600e-12 2.7051400e-14
 1.6800000e+06 2.9632450e-07 1.3143340e-09 5.0438200e-11 1.3857100e-12 3.1713700e-14
 1.8000000e+06 2.8613800e-07 1.3217630e-09 5.1258400e-11 1.4216500e-12 2.8493700e-14
 1.9200000e+06 2.7454500e-07 1.3183920e-09 5.1659900e-11 1.4443400e-12 3.0958000e-14
 2.0400000e+06 2.6202390e-07 1.3055440e-09 5.1690200e-11 1.4614500e-12 3.0107200e-14
 2.1600000e+06 2.4897390e-07 1.2844930e-09 5.1380400e-11 1.4712500e-12 3.1683900e-14
 2.2800000e+06 2.3571250e-07 1.2563440e-09 5.0765200e-11 1.4698000e-12 3.4268600e-14
 2.4000000e+06 2.2248590e-07 1.2220370e-09 4.9882300e-11 1.4526500e-12 3.0749200e-14
 2.5200000e+06 1.1335870e-07 1.1823000e-09 4.8745600e-11 1.4364900e-12 3.2923900e-14
 2.6400000e+06 5.1047310e-07 1.3222990e-09 5.5119600e-11 1.6411500e-12 3.5924300e-14
 2.7600000e+06 6.7914650e-08 6.9364900e-10 2.9186100e-11 8.7766600e-13 2.0741500e-14
 2.8800000e+06 4.5559440e-07 1.0397470e-09 4.4102300e-11 1.3363900e-12 3.1641300e-14
 3.0000000e+06 4.8704050e-07 1.1214160e-09 4.8061400e-11 1.4723500e-12 3.4595000e-14
 3.1200000e+06 3.4140140e-07 7.7356300e-10 3.3464300e-11 1.0380200e-12 2.2617900e-14
 3.2400000e+06 1.4339940e-07 1.3986750e-09 6.1135800e-11 1.9099300e-12 4.6170400e-14
 3.3600000e+06 1.8376600e-12 2.1696000e-29 -1.450460e-28 1.3695800e-29 -4.124760e-28
 3.4800000e+06 1.2902320e-08 9.3502300e-10 4.1591000e-11 1.3222800e-12 3.2774600e-14
 3.6000000e+06 7.9911300e-08 8.2207900e-10 3.6977800e-11 1.1889000e-12 2.9718200e-14
 3.7200000e+06 9.5026950e-09 7.1600600e-10 3.2460400e-11 1.0518500e-12 2.6527800e-14
 3.8400000e+06 7.0735000e-13 7.9728100e-30 -4.187330e-29 -1.623450e-29 -3.838380e-29
 3.9600000e+06 1.2257250e-07 5.3704000e-10 2.4824900e-11 8.2026400e-13 2.1038500e-14
 4.0800000e+06 1.7318910e-07 5.1212600e-10 2.3856700e-11 7.9595700e-13 2.2562200e-14
 4.2000000e+06 3.1104300e-13 -4.644630e-30 -9.206490e-30 1.6305800e-29 3.5291500e-29
 4.3200000e+06 2.3151300e-13 -1.110730e-29 2.2841600e-30 1.8341100e-30 -2.341270e-29
 4.4400000e+06 7.6265570e-08 2.2069700e-11 1.0548900e-12 3.5977600e-14 7.3611700e-16
 4.5600000e+06 1.1853410e-07 1.3360400e-24 -7.016910e-24 -2.720500e-24 -6.432170e-24
 4.6800000e+06 8.7576000e-14 -1.582640e-30 -5.184270e-30 -3.683220e-30 -4.752250e-30
 4.8000000e+06 1.7845100e-08 3.1083600e-25 -8.803200e-25 -6.991530e-25 2.0687500e-24
 4.9200000e+06 4.1719200e-14 4.7023400e-31 -2.469670e-30 -9.575070e-31 -2.263860e-30
 5.0400000e+06 2.7758100e-14 -5.506700e-30 -3.560290e-30 5.5627600e-31 2.6702200e-30
 5.1600000e+06 2.7433080e-07 -1.822880e-23 -2.977270e-23 1.4235600e-23 4.6689100e-23
 5.2800000e+06 1.0783600e-14 -1.758550e-30 -1.702300e-30 7.8796300e-32 8.5114800e-31
 5.4000000e+06 5.9945200e-15 -2.875990e-31 5.9143300e-32 4.7490400e-32 -6.062190e-31
 5.5200000e+06 2.9466000e-15 -5.187590e-31 2.9071900e-32 -1.888430e-32 3.2705900e-31
 5.6400000e+06 1.1926500e-15 -9.542880e-32 3.5301000e-32 1.6842000e-32 -7.354370e-32
 5.7600000e+06 3.3877300e-16 -1.625330e-32 3.3424100e-33 2.6838600e-33 -3.425970e-32
 5.8800000e+06 4.0560100e-17 4.5716900e-34 -2.401060e-33 -9.309040e-34 -2.200970e-33
 6.0000000e+06 8.7350550e-08 -4.190820e-24 8.6182100e-25 6.9201700e-25 -8.833670e-24


#           E1 2.0000000e+07  incident energy
#          NEP            62  number of secondary energy points
#           ND             0  number of discrete lines
#           NA             5  number of angular parameters
# Energy       PL( 0)        PL( 1)        PL( 2)        PL( 3)        PL( 4)        PL( 5)       
 0.0000000e+00 0.0000000e+00 0.0000000e+00 0.0000000e+00 0.0000000e+00 0.0000000e+00 0.0000000e+00
 3.3333320e+04 4.1760710e-08 -6.235880e-25 -1.236060e-24 2.1892200e-24 4.7382400e-24 -1.435940e-24
 1.3333330e+05 1.6692640e-07 4.7121400e-10 1.6494900e-11 4.1253300e-13 8.0914200e-15 4.1159500e-17
 2.6666670e+05 1.9227830e-07 5.8137300e-10 2.0624300e-11 5.2185500e-13 8.3569800e-15 -8.889480e-16
 4.0000000e+05 2.1165740e-07 6.8877900e-10 2.4751200e-11 6.3433500e-13 1.3564400e-14 -1.084310e-15
 5.3333330e+05 2.3114640e-07 8.1092300e-10 2.9515500e-11 7.6896200e-13 1.7037000e-14 2.2470800e-15
 6.6666670e+05 2.5087040e-07 9.4796400e-10 3.4948600e-11 9.1993300e-13 1.9234000e-14 -7.806410e-16
 8.0000000e+05 2.6934780e-07 1.0936100e-09 4.0830200e-11 1.0895100e-12 2.1103000e-14 6.8565700e-16
 9.3333330e+05 2.8486880e-07 1.2393000e-09 4.6848700e-11 1.2678000e-12 2.5455600e-14 1.8935800e-16
 1.0666670e+06 2.9617760e-07 1.3768860e-09 5.2694600e-11 1.4425900e-12 3.0468000e-14 9.9374700e-16
 1.2000000e+06 3.0265740e-07 1.5001830e-09 5.8118300e-11 1.6085000e-12 3.3634700e-14 6.0748800e-16
 1.3333330e+06 3.0432560e-07 1.6054830e-09 6.2961800e-11 1.7623500e-12 3.7025500e-14 1.8808100e-15
 1.4666670e+06 3.0164740e-07 1.6913580e-09 6.7125600e-11 1.9028200e-12 4.0390600e-14 1.2516000e-15
 1.6000000e+06 2.9533820e-07 1.7581260e-09 7.0605300e-11 2.0283000e-12 4.3585100e-14 1.0868300e-15
 1.7333330e+06 2.8619880e-07 1.8072360e-09 7.3435200e-11 2.1314400e-12 5.1601100e-14 -2.244290e-17
 1.8666670e+06 2.7500500e-07 1.8407280e-09 7.5673400e-11 2.2209600e-12 5.1858000e-14 -7.250120e-16
 2.0000000e+06 2.6244470e-07 1.8608660e-09 7.7382700e-11 2.3003600e-12 5.3991900e-14 2.1086300e-15
 2.1333330e+06 2.4908800e-07 1.8698900e-09 7.8656400e-11 2.3657400e-12 5.9175900e-14 3.0921000e-15
 2.2666670e+06 2.3539180e-07 1.8698270e-09 7.9545200e-11 2.4211200e-12 5.7185900e-14 -2.718550e-16
 2.4000000e+06 2.2170010e-07 1.8624360e-09 8.0124200e-11 2.4598900e-12 5.8783200e-14 3.7523700e-15
 2.5333330e+06 2.0826440e-07 1.8491740e-09 8.0441700e-11 2.5001400e-12 6.0135800e-14 3.1619800e-16
 2.6666670e+06 1.9525750e-07 1.8312150e-09 8.0546900e-11 2.5324300e-12 6.1759400e-14 1.7408700e-16
 2.8000000e+06 1.8279240e-07 1.8094630e-09 8.0458300e-11 2.5578100e-12 6.3298900e-14 9.9750700e-16
 2.9333330e+06 1.7093590e-07 1.7845960e-09 8.0218500e-11 2.5778600e-12 6.5329000e-14 2.0529700e-15
 3.0666670e+06 1.5972100e-07 1.7570930e-09 7.9834600e-11 2.5928100e-12 6.5416900e-14 1.0650200e-15
 3.2000000e+06 1.4915610e-07 1.7272710e-09 7.9319700e-11 2.6035300e-12 6.6514000e-14 1.4947200e-15
 3.3333330e+06 1.3923170e-07 1.6953030e-09 7.8678400e-11 2.6097100e-12 6.7246000e-14 1.6046600e-15
 3.4666670e+06 1.2992610e-07 1.6612600e-09 7.7910900e-11 2.6115200e-12 6.7990700e-14 1.5670800e-15
 3.6000000e+06 1.2121030e-07 1.6251190e-09 7.7012000e-11 2.6085400e-12 6.8943100e-14 1.4410900e-15
 3.7333330e+06 1.1305060e-07 1.5867870e-09 7.5975900e-11 2.6002900e-12 6.9232700e-14 1.8328200e-15
 3.8666670e+06 1.0541140e-07 1.5461140e-09 7.4790100e-11 2.5860800e-12 6.9579400e-14 1.4112800e-15
 4.0000000e+06 9.8255840e-08 1.5029060e-09 7.3442600e-11 2.5652200e-12 7.0018800e-14 1.3902300e-15
 4.1333330e+06 9.1547760e-08 1.4569310e-09 7.1918200e-11 2.5378800e-12 6.9646700e-14 1.3966200e-15
 4.2666670e+06 8.5251860e-08 1.4079330e-09 7.0199100e-11 2.5021400e-12 6.9530100e-14 1.6644700e-15
 4.4000000e+06 7.9334390e-08 1.3556320e-09 6.8266800e-11 2.4572600e-12 6.8771900e-14 1.7626000e-15
 4.5333330e+06 4.9129230e-08 1.4189450e-09 7.2188200e-11 2.6253800e-12 7.4294600e-14 1.6033900e-15
 4.6666670e+06 1.2607340e-07 1.1990590e-09 6.1550500e-11 2.2586800e-12 6.4354300e-14 1.2296600e-15
 4.8000000e+06 1.0620770e-07 1.3416460e-09 6.9593500e-11 2.5806100e-12 7.4187900e-14 1.6240000e-15
 4.9333330e+06 1.1339470e-07 1.0202490e-09 5.3462900e-11 2.0032500e-12 5.8475100e-14 1.4055500e-15
 5.0666670e+06 1.3959350e-07 1.2398690e-09 6.5614900e-11 2.4827400e-12 7.3020700e-14 1.9774900e-15
 5.2000000e+06 5.3384850e-08 1.3839580e-09 7.4085000e-11 2.8355600e-12 8.4352300e-14 2.1022000e-15
 5.3333330e+06 4.4508300e-13 -8.043370e-30 -2.634780e-29 -1.871900e-29 -2.415210e-29 7.2548300e-31
 5.4666670e+06 1.0674320e-08 9.1804800e-10 4.9668100e-11 1.9211800e-12 5.7838900e-14 1.4071900e-15
 5.6000000e+06 3.1776170e-08 7.9465400e-10 4.2872000e-11 1.6535900e-12 4.9602300e-14 1.1644600e-15
 5.7333330e+06 7.6625470e-09 6.8436100e-10 3.6853300e-11 1.4188500e-12 4.2502800e-14 1.0465000e-15
