#    [ 2425 :  6 :   5 ]    24 -  50
# Energy and angle distribution
#           NK            49  number of subsections

#   Subsection             0
#          ZAP             1
#          LIP             0  product modifier
#          LAW             1  distribution law
#           NP            86  yield energy points
#   Energy[eV]  CrossSec [b]  Multiplicity  CrossSec x M
 1.0000000e+06 5.7769200e-08 0.0000000e+00 0.0000000e+00
 1.2800000e+07 4.2540000e-03 0.0000000e+00 0.0000000e+00
 1.3200000e+07 5.2020000e-03 1.3933500e-01 7.2482067e-04
 1.3600000e+07 6.3860000e-03 2.9896300e-01 1.9091777e-03
 1.4000000e+07 7.5700000e-03 3.7418500e-01 2.8325804e-03
 1.4400000e+07 9.5980000e-03 4.1494600e-01 3.9826517e-03
 1.4800000e+07 1.1626000e-02 4.3451700e-01 5.0516946e-03
 1.5200000e+07 1.4180000e-02 4.4097200e-01 6.2529830e-03
 1.5600000e+07 1.7526000e-02 4.4013300e-01 7.7137710e-03
 1.6000000e+07 2.1670000e-02 4.3553600e-01 9.4380651e-03
 1.6400000e+07 2.7238000e-02 4.2929500e-01 1.1693137e-02
 1.6800000e+07 3.4156000e-02 4.2251300e-01 1.4431354e-02
 1.7200000e+07 4.2496000e-02 4.1659100e-01 1.7703451e-02
 1.7600000e+07 5.2152000e-02 4.1042900e-01 2.1404693e-02
 1.8000000e+07 6.2840000e-02 4.0424500e-01 2.5402756e-02
 1.8400000e+07 7.3064000e-02 3.9838500e-01 2.9107602e-02
 1.8800000e+07 8.1080000e-02 3.9279600e-01 3.1847900e-02
 1.9200000e+07 8.6268000e-02 3.8741500e-01 3.3421517e-02
 1.9600000e+07 8.8530000e-02 3.8231000e-01 3.3845904e-02
 2.0000000e+07 8.8290000e-02 3.7741400e-01 3.3321882e-02
 2.0400000e+07 8.6306000e-02 3.7271300e-01 3.2167368e-02
 2.1200000e+07 8.0954000e-02 3.6533600e-01 2.9575411e-02
 2.1400000e+07 7.9438000e-02 3.6450900e-01 2.8955866e-02
 2.1600000e+07 7.7840000e-02 3.6336500e-01 2.8284332e-02
 2.2000000e+07 7.4480000e-02 3.6318000e-01 2.7049646e-02
 2.2400000e+07 7.0840000e-02 3.6296200e-01 2.5712228e-02
 2.2800000e+07 6.7080000e-02 3.6311200e-01 2.4357553e-02
 2.3200000e+07 6.3284000e-02 3.6381900e-01 2.3023922e-02
 2.3600000e+07 5.9526000e-02 3.6619400e-01 2.1798064e-02
 2.4000000e+07 5.5870000e-02 3.8083600e-01 2.1277307e-02
 2.4400000e+07 5.2462000e-02 4.1283900e-01 2.1658360e-02
 2.4800000e+07 4.9276000e-02 4.5711400e-01 2.2524749e-02
 2.5200000e+07 4.6320000e-02 5.1254300e-01 2.3740992e-02
 2.5600000e+07 4.3596000e-02 5.7188600e-01 2.4931942e-02
 2.6000000e+07 4.1100000e-02 6.3363900e-01 2.6042563e-02
 2.6400000e+07 3.8884000e-02 6.9362900e-01 2.6971070e-02
 2.6800000e+07 3.6854000e-02 7.4841200e-01 2.7581976e-02
 2.7200000e+07 3.5002000e-02 7.9832800e-01 2.7943077e-02
 2.7600000e+07 3.3314000e-02 8.4329300e-01 2.8093463e-02
 2.8000000e+07 3.1770000e-02 8.8417300e-01 2.8090176e-02
 2.8400000e+07 3.0402000e-02 9.1872900e-01 2.7931199e-02
 2.8900000e+07 2.8836000e-02 9.5512100e-01 2.7541869e-02
 2.9200000e+07 2.7986000e-02 9.7377800e-01 2.7252151e-02
 2.9600000e+07 2.6924000e-02 9.9542000e-01 2.6800688e-02
 3.0000000e+07 2.5940000e-02 1.0140100e+00 2.6303419e-02
 3.0500000e+07 2.4840000e-02 1.0340600e+00 2.5686050e-02
 3.1000000e+07 2.3850000e-02 1.0500800e+00 2.5044408e-02
 3.2000000e+07 2.2130000e-02 1.0729800e+00 2.3745047e-02
 3.3000000e+07 2.0700000e-02 1.0856100e+00 2.2472127e-02
 3.4000000e+07 1.9500000e-02 1.0919300e+00 2.1292635e-02
 3.5000000e+07 1.8480000e-02 1.0944200e+00 2.0224882e-02
 3.6000000e+07 1.7610000e-02 1.0964000e+00 1.9307604e-02
 3.7000000e+07 1.6850000e-02 1.1004300e+00 1.8542246e-02
 3.8000000e+07 1.6180000e-02 1.1085400e+00 1.7936177e-02
 3.9000000e+07 1.5590000e-02 1.1213300e+00 1.7481535e-02
 4.0000000e+07 1.5070000e-02 1.1378300e+00 1.7147098e-02
 4.1000000e+07 1.4610000e-02 1.1562400e+00 1.6892666e-02
 4.2000000e+07 1.4190000e-02 1.1758700e+00 1.6685595e-02
 4.3000000e+07 1.3810000e-02 1.1957500e+00 1.6513308e-02
 4.4000000e+07 1.3460000e-02 1.2155400e+00 1.6361168e-02
 4.5000000e+07 1.3140000e-02 1.2356000e+00 1.6235784e-02
 4.6000000e+07 1.2850000e-02 1.2562700e+00 1.6143069e-02
 4.7200000e+07 1.2528000e-02 1.2816300e+00 1.6056261e-02
 4.8200000e+07 1.2282000e-02 1.3033100e+00 1.6007253e-02
 4.9000000e+07 1.2090000e-02 1.3206200e+00 1.5966296e-02
 5.0000000e+07 1.1870000e-02 1.3426500e+00 1.5937256e-02
 5.1000000e+07 1.1660000e-02 1.3635400e+00 1.5898876e-02
 5.2000000e+07 1.1470000e-02 1.3840000e+00 1.5874480e-02
 5.3000000e+07 1.1280000e-02 1.4027500e+00 1.5823020e-02
 5.4000000e+07 1.1100000e-02 1.4204500e+00 1.5766995e-02
 5.5200000e+07 1.0898000e-02 1.4412100e+00 1.5706307e-02
 5.6000000e+07 1.0770000e-02 1.4548200e+00 1.5668411e-02
 5.7000000e+07 1.0620000e-02 1.4698900e+00 1.5610232e-02
 5.8200000e+07 1.0442000e-02 1.4878900e+00 1.5536547e-02
 5.9000000e+07 1.0330000e-02 1.4990300e+00 1.5484980e-02
 6.0000000e+07 1.0190000e-02 1.5130000e+00 1.5417470e-02
 7.0000000e+07 9.0100000e-03 1.6543800e+00 1.4905964e-02
 8.0000000e+07 8.0600000e-03 1.7812000e+00 1.4356472e-02
 9.0000000e+07 7.2300000e-03 1.8923200e+00 1.3681474e-02
 1.0000000e+08 6.4900000e-03 1.9861700e+00 1.2890243e-02
 1.1000000e+08 5.8300000e-03 2.0667500e+00 1.2049153e-02
 1.2000000e+08 5.2500000e-03 2.1374800e+00 1.1221770e-02
 1.4000000e+08 4.3300000e-03 2.2663500e+00 9.8132955e-03
 1.6000000e+08 3.5500000e-03 2.3865000e+00 8.4720750e-03
 1.8000000e+08 2.9700000e-03 2.5021500e+00 7.4313855e-03
 2.0000000e+08 2.5300000e-03 2.5691400e+00 6.4999242e-03


#           NR             1
#           NE            86
#         LANG             2  1: Legendre, 2:KM systematics, 11-15: tabulated
#          LEP             2  secondary energy interpolation
#           E1 1.0000000e+06  incident energy
#          NEP             2  number of secondary energy points
#           ND             0  number of discrete lines
#           NA             1  number of angular parameters
# Energy       PL( 0)        PL( 1)       
 0.0000000e+00 2.0000000e+05 0.0000000e+00
 1.0000000e-05 0.0000000e+00 0.0000000e+00


#           E1 1.2800000e+07  incident energy
#          NEP             2  number of secondary energy points
#           ND             0  number of discrete lines
#           NA             1  number of angular parameters
# Energy       PL( 0)        PL( 1)       
 0.0000000e+00 2.0000000e+05 0.0000000e+00
 1.0000000e-05 0.0000000e+00 0.0000000e+00


#           E1 1.3200000e+07  incident energy
#          NEP            10  number of secondary energy points
#           ND             0  number of discrete lines
#           NA             1  number of angular parameters
# Energy       PL( 0)        PL( 1)       
 0.0000000e+00 0.0000000e+00 0.0000000e+00
 1.0000000e+03 4.6713000e-07 0.0000000e+00
 2.0000000e+03 9.2782000e-07 0.0000000e+00
 5.0000000e+03 2.3099000e-06 0.0000000e+00
 1.0000000e+04 3.5232000e-06 0.0000000e+00
 2.0000000e+04 4.6342000e-06 0.0000000e+00
 5.0000000e+04 6.2137000e-06 0.0000000e+00
 1.0000000e+05 7.8120000e-06 0.0000000e+00
 2.0000000e+05 2.3412000e-07 1.0037000e-02
 4.0000000e+05 0.0000000e+00 0.0000000e+00


#           E1 1.3600000e+07  incident energy
#          NEP            12  number of secondary energy points
#           ND             0  number of discrete lines
#           NA             1  number of angular parameters
# Energy       PL( 0)        PL( 1)       
 0.0000000e+00 0.0000000e+00 0.0000000e+00
 1.0000000e+03 5.1654000e-08 0.0000000e+00
 2.0000000e+03 1.0255000e-07 0.0000000e+00
 5.0000000e+03 2.5525000e-07 0.0000000e+00
 1.0000000e+04 5.0975000e-07 0.0000000e+00
 2.0000000e+04 9.9119000e-07 0.0000000e+00
 5.0000000e+04 1.3442000e-06 0.0000000e+00
 1.0000000e+05 1.6909000e-06 0.0000000e+00
 2.0000000e+05 1.9916000e-06 0.0000000e+00
 4.0000000e+05 2.3885000e-06 0.0000000e+00
 6.0000000e+05 9.0391000e-08 3.0315000e-02
 8.0000000e+05 0.0000000e+00 0.0000000e+00


#           E1 1.4000000e+07  incident energy
#          NEP            14  number of secondary energy points
#           ND             0  number of discrete lines
#           NA             1  number of angular parameters
# Energy       PL( 0)        PL( 1)       
 0.0000000e+00 0.0000000e+00 0.0000000e+00
 1.0000000e+03 1.7344000e-08 0.0000000e+00
 2.0000000e+03 3.4421000e-08 0.0000000e+00
 5.0000000e+03 8.5650000e-08 0.0000000e+00
 1.0000000e+04 1.7103000e-07 0.0000000e+00
 2.0000000e+04 3.4179000e-07 0.0000000e+00
 5.0000000e+04 6.1523000e-07 0.0000000e+00
 1.0000000e+05 7.7454000e-07 0.0000000e+00
 2.0000000e+05 9.1216000e-07 0.0000000e+00
 4.0000000e+05 1.0939000e-06 0.0000000e+00
 6.0000000e+05 1.2729000e-06 0.0000000e+00
 8.0000000e+05 1.4477000e-06 0.0000000e+00
 1.0000000e+06 4.5233000e-08 5.0609000e-02
 1.2000000e+06 0.0000000e+00 0.0000000e+00


#           E1 1.4400000e+07  incident energy
#          NEP            16  number of secondary energy points
#           ND             0  number of discrete lines
#           NA             1  number of angular parameters
# Energy       PL( 0)        PL( 1)       
 0.0000000e+00 0.0000000e+00 0.0000000e+00
 1.0000000e+03 8.1218000e-09 0.0000000e+00
 2.0000000e+03 1.6107000e-08 0.0000000e+00
 5.0000000e+03 4.0061000e-08 0.0000000e+00
 1.0000000e+04 7.9985000e-08 0.0000000e+00
 2.0000000e+04 1.5983000e-07 0.0000000e+00
 5.0000000e+04 3.7308000e-07 0.0000000e+00
 1.0000000e+05 4.6439000e-07 0.0000000e+00
 2.0000000e+05 5.5164000e-07 0.0000000e+00
 4.0000000e+05 6.6363000e-07 0.0000000e+00
 6.0000000e+05 7.7149000e-07 0.0000000e+00
 8.0000000e+05 8.7764000e-07 0.0000000e+00
 1.0000000e+06 9.6259000e-07 0.0000000e+00
 1.2000000e+06 1.0127000e-06 0.0000000e+00
 1.4000000e+06 2.9473000e-08 7.0910000e-02
 1.6000000e+06 0.0000000e+00 0.0000000e+00


#           E1 1.4800000e+07  incident energy
#          NEP            18  number of secondary energy points
#           ND             0  number of discrete lines
#           NA             1  number of angular parameters
# Energy       PL( 0)        PL( 1)       
 0.0000000e+00 0.0000000e+00 0.0000000e+00
 1.0000000e+03 4.8264000e-09 1.6473000e-04
 2.0000000e+03 9.5696000e-09 1.6473000e-04
 5.0000000e+03 2.3799000e-08 1.6473000e-04
 1.0000000e+04 4.7515000e-08 1.6473000e-04
 2.0000000e+04 9.4947000e-08 1.6473000e-04
 5.0000000e+04 2.9853000e-07 6.7892000e-04
 1.0000000e+05 3.3358000e-07 2.5185000e-04
 2.0000000e+05 3.9219000e-07 8.8851000e-05
 4.0000000e+05 4.7241000e-07 6.7841000e-06
 6.0000000e+05 5.4906000e-07 0.0000000e+00
 8.0000000e+05 6.2477000e-07 0.0000000e+00
 1.0000000e+06 6.8513000e-07 0.0000000e+00
 1.2000000e+06 7.2072000e-07 0.0000000e+00
 1.4000000e+06 7.2942000e-07 0.0000000e+00
 1.6000000e+06 7.1474000e-07 0.0000000e+00
 1.8000000e+06 1.2953000e-08 9.1214000e-02
 2.0000000e+06 0.0000000e+00 0.0000000e+00


#           E1 1.5200000e+07  incident energy
#          NEP            19  number of secondary energy points
#           ND             0  number of discrete lines
#           NA             1  number of angular parameters
# Energy       PL( 0)        PL( 1)       
 0.0000000e+00 0.0000000e+00 0.0000000e+00
 1.0000000e+03 3.3000000e-09 5.4825000e-04
 2.0000000e+03 6.5402000e-09 5.4825000e-04
 5.0000000e+03 1.6261000e-08 5.4825000e-04
 1.0000000e+04 3.2462000e-08 5.4825000e-04
 2.0000000e+04 6.4864000e-08 5.4825000e-04
 5.0000000e+04 1.6207000e-07 5.4825000e-04
 1.0000000e+05 2.5247000e-07 5.2562000e-04
 2.0000000e+05 3.3150000e-07 1.1861000e-03
 4.0000000e+05 3.6995000e-07 2.7766000e-04
 6.0000000e+05 4.3000000e-07 1.2221000e-04
 8.0000000e+05 4.8865000e-07 8.9916000e-06
 1.0000000e+06 5.3608000e-07 0.0000000e+00
 1.2000000e+06 5.6384000e-07 0.0000000e+00
 1.4000000e+06 5.7065000e-07 0.0000000e+00
 1.6000000e+06 5.5925000e-07 0.0000000e+00
 1.8000000e+06 5.3428000e-07 0.0000000e+00
 2.0000000e+06 5.0088000e-07 0.0000000e+00
 2.2500000e+06 0.0000000e+00 0.0000000e+00


#           E1 1.5600000e+07  incident energy
#          NEP            21  number of secondary energy points
#           ND             0  number of discrete lines
#           NA             1  number of angular parameters
# Energy       PL( 0)        PL( 1)       
 0.0000000e+00 0.0000000e+00 0.0000000e+00
 1.0000000e+03 2.4741000e-09 1.1554000e-03
 2.0000000e+03 4.9011000e-09 1.1554000e-03
 5.0000000e+03 1.2182000e-08 1.1554000e-03
 1.0000000e+04 2.4317000e-08 1.1554000e-03
 2.0000000e+04 2.0855000e-07 9.9471000e-04
 5.0000000e+04 1.2140000e-07 1.1554000e-03
 1.0000000e+05 2.0319000e-07 1.1329000e-03
 2.0000000e+05 2.4520000e-07 1.0353000e-03
 4.0000000e+05 2.9640000e-07 8.6970000e-04
 6.0000000e+05 4.5644000e-07 7.9882000e-03
 8.0000000e+05 3.9150000e-07 4.0326000e-04
 1.0000000e+06 4.2888000e-07 1.6211000e-04
 1.2000000e+06 4.5131000e-07 7.7164000e-06
 1.4000000e+06 4.5656000e-07 0.0000000e+00
 1.6000000e+06 4.4751000e-07 0.0000000e+00
 1.8000000e+06 4.2748000e-07 0.0000000e+00
 2.0000000e+06 4.0082000e-07 0.0000000e+00
 2.2500000e+06 3.7442000e-07 3.5485000e-03
 2.5000000e+06 3.3482000e-07 4.1132000e-03
 2.7500000e+06 0.0000000e+00 0.0000000e+00


#           E1 1.6000000e+07  incident energy
#          NEP            23  number of secondary energy points
#           ND             0  number of discrete lines
#           NA             1  number of angular parameters
# Energy       PL( 0)        PL( 1)       
 0.0000000e+00 0.0000000e+00 0.0000000e+00
 1.0000000e+03 2.1780000e-09 1.9682000e-03
 2.0000000e+03 4.3110000e-09 1.9681000e-03
 5.0000000e+03 1.0710000e-08 1.9681000e-03
 1.0000000e+04 2.1376000e-08 1.9681000e-03
 2.0000000e+04 7.2632000e-08 1.5419000e-03
 5.0000000e+04 1.0670000e-07 1.9681000e-03
 1.0000000e+05 1.8987000e-07 1.9527000e-03
 2.0000000e+05 2.2719000e-07 1.8535000e-03
 4.0000000e+05 3.3273000e-07 4.9738000e-03
 6.0000000e+05 3.1874000e-07 1.3763000e-03
 8.0000000e+05 3.8164000e-07 3.1366000e-03
 1.0000000e+06 4.8653000e-07 1.0008000e-02
 1.2000000e+06 4.3009000e-07 2.2517000e-03
 1.4000000e+06 4.2271000e-07 2.1205000e-04
 1.6000000e+06 4.1395000e-07 1.6812000e-05
 1.8000000e+06 3.9553000e-07 0.0000000e+00
 2.0000000e+06 3.7087000e-07 0.0000000e+00
 2.2500000e+06 3.3581000e-07 0.0000000e+00
 2.5000000e+06 2.9984000e-07 0.0000000e+00
 2.7500000e+06 2.6553000e-07 3.1705000e-05
 3.0000000e+06 2.5039000e-09 1.5213000e-01
 3.2500000e+06 0.0000000e+00 0.0000000e+00


#           E1 1.6400000e+07  incident energy
#          NEP            24  number of secondary energy points
#           ND             0  number of discrete lines
#           NA             1  number of angular parameters
# Energy       PL( 0)        PL( 1)       
 0.0000000e+00 0.0000000e+00 0.0000000e+00
 1.0000000e+03 1.8416000e-09 2.9628000e-03
 2.0000000e+03 3.6416000e-09 2.9627000e-03
 5.0000000e+03 9.0419000e-09 2.9627000e-03
 1.0000000e+04 1.8043000e-08 2.9627000e-03
 2.0000000e+04 3.6044000e-08 2.9627000e-03
 5.0000000e+04 9.0051000e-08 2.9626000e-03
 1.0000000e+05 1.6895000e-07 2.9551000e-03
 2.0000000e+05 2.0043000e-07 2.8683000e-03
 4.0000000e+05 2.8934000e-07 5.6507000e-03
 6.0000000e+05 2.8074000e-07 2.4143000e-03
 8.0000000e+05 4.0224000e-07 1.0147000e-02
 1.0000000e+06 3.4955000e-07 1.7875000e-03
 1.2000000e+06 4.0483000e-07 6.9122000e-03
 1.4000000e+06 4.3888000e-07 1.1710000e-02
 1.6000000e+06 4.0606000e-07 9.0040000e-03
 1.8000000e+06 3.4799000e-07 2.8098000e-04
 2.0000000e+06 3.2609000e-07 1.9431000e-05
 2.2500000e+06 2.9661000e-07 5.2098000e-04
 2.5000000e+06 2.6366000e-07 0.0000000e+00
 2.7500000e+06 2.3344000e-07 0.0000000e+00
 3.0000000e+06 2.0685000e-07 9.0229000e-04
 3.2500000e+06 1.8130000e-07 6.3849000e-04
 3.5000000e+06 0.0000000e+00 0.0000000e+00


#           E1 1.6800000e+07  incident energy
#          NEP            26  number of secondary energy points
#           ND             0  number of discrete lines
#           NA             1  number of angular parameters
# Energy       PL( 0)        PL( 1)       
 0.0000000e+00 0.0000000e+00 0.0000000e+00
 1.0000000e+03 1.6763000e-09 4.1118000e-03
 2.0000000e+03 3.3161000e-09 4.1118000e-03
 5.0000000e+03 8.2355000e-09 4.1118000e-03
 1.0000000e+04 1.6435000e-08 4.1118000e-03
 2.0000000e+04 3.2834000e-08 4.1118000e-03
 5.0000000e+04 8.2033000e-08 4.1118000e-03
 1.0000000e+05 1.6061000e-07 4.1100000e-03
 2.0000000e+05 1.8961000e-07 4.0486000e-03
 4.0000000e+05 2.2779000e-07 3.9255000e-03
 6.0000000e+05 2.6440000e-07 3.6826000e-03
 8.0000000e+05 3.7689000e-07 1.0993000e-02
 1.0000000e+06 3.2965000e-07 3.0986000e-03
 1.2000000e+06 4.1841000e-07 1.2707000e-02
 1.4000000e+06 3.5081000e-07 2.2882000e-03
 1.6000000e+06 3.8620000e-07 1.0606000e-02
 1.8000000e+06 3.7792000e-07 1.3171000e-02
 2.0000000e+06 3.7438000e-07 1.8939000e-02
 2.2500000e+06 2.7827000e-07 2.1504000e-04
 2.5000000e+06 2.4843000e-07 0.0000000e+00
 2.7500000e+06 2.1993000e-07 0.0000000e+00
 3.0000000e+06 1.9373000e-07 0.0000000e+00
 3.2500000e+06 1.7015000e-07 0.0000000e+00
 3.5000000e+06 1.5606000e-07 7.7953000e-03
 3.7500000e+06 3.2482000e-08 1.8950000e-01
 4.0000000e+06 0.0000000e+00 0.0000000e+00


#           E1 1.7200000e+07  incident energy
#          NEP            27  number of secondary energy points
#           ND             0  number of discrete lines
#           NA             1  number of angular parameters
# Energy       PL( 0)        PL( 1)       
 0.0000000e+00 0.0000000e+00 0.0000000e+00
 1.0000000e+03 2.5466000e-08 5.4134000e-03
 2.0000000e+03 3.6423000e-08 5.4133000e-03
 5.0000000e+03 5.3548000e-08 5.4129000e-03
 1.0000000e+04 2.4568000e-07 1.9559000e-03
 2.0000000e+04 8.2398000e-08 5.4090000e-03
 5.0000000e+04 1.0793000e-07 5.4021000e-03
 1.0000000e+05 1.5048000e-07 5.3959000e-03
 2.0000000e+05 1.8412000e-07 5.3698000e-03
 4.0000000e+05 2.2202000e-07 5.2816000e-03
 6.0000000e+05 2.5825000e-07 5.1411000e-03
 8.0000000e+05 2.9492000e-07 5.1290000e-03
 1.0000000e+06 3.2146000e-07 4.6814000e-03
 1.2000000e+06 4.0516000e-07 1.3736000e-02
 1.4000000e+06 3.4197000e-07 3.9356000e-03
 1.6000000e+06 3.8561000e-07 1.3660000e-02
 1.8000000e+06 3.1998000e-07 2.9017000e-03
 2.0000000e+06 3.3667000e-07 1.3163000e-02
 2.2500000e+06 2.7132000e-07 1.4924000e-03
 2.5000000e+06 2.4477000e-07 2.0604000e-03
 2.7500000e+06 2.1417000e-07 5.4657000e-05
 3.0000000e+06 1.8916000e-07 4.3486000e-04
 3.2500000e+06 1.6570000e-07 0.0000000e+00
 3.5000000e+06 1.4530000e-07 0.0000000e+00
 3.7500000e+06 1.2745000e-07 1.5466000e-04
 4.0000000e+06 1.1158000e-07 8.1027000e-05
 4.2500000e+06 0.0000000e+00 0.0000000e+00


#           E1 1.7600000e+07  incident energy
#          NEP            29  number of secondary energy points
#           ND             0  number of discrete lines
#           NA             1  number of angular parameters
# Energy       PL( 0)        PL( 1)       
 0.0000000e+00 0.0000000e+00 0.0000000e+00
 1.0000000e+03 5.8365000e-09 6.7669000e-03
 2.0000000e+03 1.1534000e-08 6.7669000e-03
 5.0000000e+03 2.8629000e-08 6.7669000e-03
 1.0000000e+04 5.7123000e-08 6.7669000e-03
 2.0000000e+04 8.7981000e-08 6.7690000e-03
 5.0000000e+04 1.1801000e-07 6.7771000e-03
 1.0000000e+05 1.4787000e-07 6.7890000e-03
 2.0000000e+05 1.7478000e-07 6.8057000e-03
 4.0000000e+05 2.8104000e-07 1.0278000e-02
 6.0000000e+05 2.4404000e-07 6.7615000e-03
 8.0000000e+05 2.7740000e-07 6.6508000e-03
 1.0000000e+06 3.0406000e-07 6.4769000e-03
 1.2000000e+06 3.2179000e-07 6.5762000e-03
 1.4000000e+06 3.2349000e-07 5.9051000e-03
 1.6000000e+06 3.6977000e-07 1.6320000e-02
 1.8000000e+06 3.0259000e-07 4.9566000e-03
 2.0000000e+06 3.1939000e-07 1.5241000e-02
 2.2500000e+06 2.5657000e-07 3.4499000e-03
 2.5000000e+06 2.3106000e-07 3.6640000e-03
 2.7500000e+06 2.1378000e-07 8.8453000e-03
 3.0000000e+06 1.7840000e-07 6.8846000e-04
 3.2500000e+06 1.5638000e-07 0.0000000e+00
 3.5000000e+06 1.3772000e-07 7.4240000e-04
 3.7500000e+06 1.2019000e-07 0.0000000e+00
 4.0000000e+06 1.0527000e-07 0.0000000e+00
 4.2500000e+06 1.1210000e-07 3.8452000e-02
 4.5000000e+06 8.4305000e-08 1.0766000e-01
 4.7500000e+06 0.0000000e+00 0.0000000e+00


#           E1 1.8000000e+07  incident energy
#          NEP            31  number of secondary energy points
#           ND             0  number of discrete lines
#           NA             1  number of angular parameters
# Energy       PL( 0)        PL( 1)       
