#    [ 2843 :  6 :   5 ]    28 -  64
# Energy and angle distribution
#           NK           238  number of subsections

#   Subsection             0
#          ZAP             1
#          LIP             0  product modifier
#          LAW             1  distribution law
#           NP            72  yield energy points
#   Energy[eV]  CrossSec [b]  Multiplicity  CrossSec x M
 1.0000000e+06 7.3557640e-06 0.0000000e+00 0.0000000e+00
 9.6574630e+06 7.2358361e-03 0.0000000e+00 0.0000000e+00
 1.0000000e+07 8.2329730e-03 9.9839390e-01 8.2197500e-03
 1.0500000e+07 9.6516660e-03 9.9919430e-01 9.6438897e-03
 1.1000000e+07 1.1145250e-02 9.9936830e-01 1.1138210e-02
 1.1500000e+07 1.2973900e-02 9.9940260e-01 1.2966149e-02
 1.2000000e+07 1.5390260e-02 9.9936390e-01 1.5380470e-02
 1.2500000e+07 1.8602980e-02 9.9931790e-01 1.8590291e-02
 1.3000000e+07 2.2815550e-02 9.9923300e-01 2.2798050e-02
 1.3500000e+07 2.8257440e-02 9.9913970e-01 2.8233130e-02
 1.4000000e+07 3.5184620e-02 9.9902630e-01 3.5150361e-02
 1.4500000e+07 4.3841780e-02 9.9882100e-01 4.3790091e-02
 1.5000000e+07 5.4370900e-02 9.9845890e-01 5.4287109e-02
 1.5500000e+07 6.6648900e-02 9.9797340e-01 6.6513829e-02
 1.6000000e+07 8.0057610e-02 9.9747170e-01 7.9855200e-02
 1.6500000e+07 9.3271010e-02 9.9700730e-01 9.2991878e-02
 1.7000000e+07 1.0430830e-01 1.1061090e+00 1.1537635e-01
 1.7500000e+07 1.1113070e-01 1.2604960e+00 1.4007980e-01
 1.8000000e+07 1.1260170e-01 1.4208340e+00 1.5998832e-01
 1.8500000e+07 1.0904720e-01 1.5533620e+00 1.6938978e-01
 1.9000000e+07 1.0191550e-01 1.6363990e+00 1.6677442e-01
 1.9500000e+07 9.2943900e-02 1.7055130e+00 1.5851703e-01
 2.0000000e+07 8.3529020e-02 1.7486820e+00 1.4606569e-01
 2.1000000e+07 6.6280310e-02 1.8012950e+00 1.1939039e-01
 2.2000000e+07 5.2788390e-02 1.8292370e+00 9.6562476e-02
 2.3000000e+07 4.2738630e-02 1.8447300e+00 7.8841233e-02
 2.4000000e+07 3.5270590e-02 1.8506540e+00 6.5273658e-02
 2.5000000e+07 2.9640220e-02 1.8534340e+00 5.4936192e-02
 2.6000000e+07 2.5311770e-02 1.8519280e+00 4.6875576e-02
 2.7000000e+07 2.1917740e-02 1.8494100e+00 4.0534888e-02
 2.8000000e+07 1.9207650e-02 1.8478100e+00 3.5492088e-02
 2.9000000e+07 1.7009030e-02 1.8789070e+00 3.1958386e-02
 3.0000000e+07 1.5201130e-02 1.9533200e+00 2.9692671e-02
 3.2000000e+07 1.2436260e-02 2.1033080e+00 2.6157285e-02
 3.4000000e+07 1.0463270e-02 2.2183120e+00 2.3210797e-02
 3.6000000e+07 9.0256220e-03 2.2825390e+00 2.0601334e-02
 3.8000000e+07 7.9652170e-03 2.3229660e+00 1.8502928e-02
 4.0000000e+07 7.1779330e-03 2.3741610e+00 1.7041569e-02
 4.2000000e+07 6.5916050e-03 2.4366490e+00 1.6061428e-02
 4.4000000e+07 6.1544250e-03 2.4991630e+00 1.5380911e-02
 4.6000000e+07 5.8283610e-03 2.5638200e+00 1.4942868e-02
 4.8000000e+07 5.5851200e-03 2.6193240e+00 1.4629239e-02
 5.0000000e+07 5.4034970e-03 2.6609550e+00 1.4378462e-02
 5.2000000e+07 5.2675270e-03 2.6999770e+00 1.4222202e-02
 5.4000000e+07 5.1651620e-03 2.7423790e+00 1.4164832e-02
 5.6000000e+07 5.0872980e-03 2.7836820e+00 1.4161420e-02
 5.8000000e+07 5.0270440e-03 2.8390220e+00 1.4271889e-02
 6.0000000e+07 4.9791900e-03 2.8911170e+00 1.4395421e-02
 6.2000000e+07 4.9397960e-03 2.9398830e+00 1.4522422e-02
 6.4000000e+07 4.9058870e-03 2.9885730e+00 1.4661601e-02
 6.6000000e+07 4.8752270e-03 3.0270060e+00 1.4757341e-02
 6.8000000e+07 4.8461420e-03 3.0738530e+00 1.4896328e-02
 7.0000000e+07 4.8173910e-03 3.1130360e+00 1.4996712e-02
 7.2000000e+07 4.7880640e-03 3.1615450e+00 1.5137680e-02
 7.4000000e+07 4.7575070e-03 3.2010990e+00 1.5229251e-02
 7.6000000e+07 4.7252660e-03 3.1498500e+00 1.4883879e-02
 7.8000000e+07 4.6910370e-03 3.1848400e+00 1.4940202e-02
 8.0000000e+07 4.6546380e-03 3.2247360e+00 1.5009979e-02
 8.5000000e+07 4.5537180e-03 3.3104110e+00 1.5074678e-02
 9.0000000e+07 4.4390840e-03 3.3997960e+00 1.5091980e-02
 9.5000000e+07 4.3125210e-03 3.4918880e+00 1.5058840e-02
 1.0000000e+08 4.1766120e-03 3.5849030e+00 1.4972749e-02
 1.1000000e+08 3.8887570e-03 3.7606280e+00 1.4624168e-02
 1.2000000e+08 3.6002970e-03 4.1338280e+00 1.4883009e-02
 1.3000000e+08 3.3354790e-03 4.3183150e+00 1.4403649e-02
 1.4000000e+08 3.1169530e-03 4.4962560e+00 1.4014619e-02
 1.5000000e+08 2.8460650e-03 4.6657720e+00 1.3279090e-02
 1.6000000e+08 2.6122300e-03 4.8302180e+00 1.2617640e-02
 1.7000000e+08 2.4087100e-03 4.9920950e+00 1.2024509e-02
 1.8000000e+08 2.2302680e-03 5.1399380e+00 1.1463439e-02
 1.9000000e+08 2.0727830e-03 5.2851990e+00 1.0955071e-02
 2.0000000e+08 1.9329650e-03 5.4303520e+00 1.0496680e-02


#           NR             1
#           NE            31
#         LANG             1  1: Legendre, 2:KM systematics, 11-15: tabulated
#          LEP             2  secondary energy interpolation
#           E1 1.0000000e+06  incident energy
#          NEP             3  number of secondary energy points
#           ND             0  number of discrete lines
#           NA             0  number of angular parameters
# Energy       Spectrum
 0.0000000e+00 0.0000000e+00
 5.0000000e-01 2.0000000e+00
 1.0000000e+00 0.0000000e+00


#           E1 9.6574630e+06  incident energy
#          NEP             3  number of secondary energy points
#           ND             0  number of discrete lines
#           NA             0  number of angular parameters
# Energy       Spectrum
 0.0000000e+00 0.0000000e+00
 5.0000000e-01 2.0000000e+00
 1.0000000e+00 0.0000000e+00


#           E1 1.0000000e+07  incident energy
#          NEP             5  number of secondary energy points
#           ND             0  number of discrete lines
#           NA             0  number of angular parameters
# Energy       Spectrum
 0.0000000e+00 0.0000000e+00
 2.5000000e+04 1.5436900e-12
 1.0000000e+05 2.6956100e-13
 2.0000000e+05 5.4625470e-06
 3.0000000e+05 9.0749050e-06


#           E1 1.2000000e+07  incident energy
#          NEP            25  number of secondary energy points
#           ND             0  number of discrete lines
#           NA             3  number of angular parameters
# Energy       PL( 0)        PL( 1)        PL( 2)        PL( 3)       
 0.0000000e+00 0.0000000e+00 0.0000000e+00 0.0000000e+00 0.0000000e+00
 2.5000000e+04 4.9812230e-09 -5.237780e-25 3.4402200e-25 -5.597570e-27
 1.0000000e+05 1.9598310e-08 4.6625000e-11 1.0547300e-12 1.6947400e-14
 2.0000000e+05 4.7677030e-07 2.1331500e-10 4.8874900e-12 7.9383500e-14
 3.0000000e+05 3.8173300e-11 -2.963670e-27 -1.129880e-27 5.3962100e-28
 4.0000000e+05 1.4930180e-07 2.4177700e-10 5.7039900e-12 9.8175400e-14
 5.0000000e+05 2.8679000e-11 3.3859300e-28 -2.263630e-27 2.1373900e-28
 6.0000000e+05 2.2031390e-07 1.3745100e-10 3.2836300e-12 5.7142100e-14
 7.0000000e+05 9.4275970e-07 1.6796300e-10 4.0685000e-12 6.9462100e-14
 8.0000000e+05 1.6079700e-11 -8.355400e-28 1.5864600e-28 -3.429840e-28
 9.0000000e+05 2.1317730e-07 6.8520300e-12 1.7103300e-13 2.1537300e-15
 1.0000000e+06 1.1725730e-06 5.0615500e-23 -1.388270e-22 -4.379480e-24
 1.1000000e+06 7.1137860e-07 -9.024930e-24 -8.422360e-23 -6.629760e-25
 1.2000000e+06 5.7441900e-12 -2.755890e-28 5.6673500e-29 4.5507200e-29
 1.3000000e+06 1.7225860e-06 -2.809140e-22 -2.719270e-22 1.2587000e-23
 1.4000000e+06 2.6660200e-12 6.0979800e-29 2.6303600e-28 -3.484430e-29
 1.5000000e+06 1.7926600e-12 -2.274270e-29 -2.122420e-28 -1.670690e-30
 1.6000000e+06 1.1254600e-12 -1.302460e-28 3.3312000e-29 1.7436000e-29
 1.7000000e+06 6.2998100e-13 2.7193900e-29 -7.458650e-29 -2.352930e-30
 1.8000000e+06 1.5726780e-06 -2.768750e-22 1.5516400e-23 -1.007910e-23
 1.9000000e+06 1.6054700e-13 -1.688160e-29 1.1088000e-29 -1.804120e-31
 2.0000000e+06 6.2120300e-14 -6.531980e-30 4.2902600e-30 -6.980670e-32
 2.1000000e+06 1.6445700e-14 7.0989700e-31 -1.947080e-30 -6.142340e-32
 2.2000000e+06 1.6734960e-06 3.8277800e-23 1.6511100e-22 -2.187220e-23
 2.3000000e+06 2.2504630e-06 -4.418670e-23 -1.110180e-22 -6.702960e-23


#           E1 1.4000000e+07  incident energy
#          NEP            45  number of secondary energy points
#           ND             0  number of discrete lines
#           NA             4  number of angular parameters
# Energy       PL( 0)        PL( 1)        PL( 2)        PL( 3)        PL( 4)       
 0.0000000e+00 0.0000000e+00 0.0000000e+00 0.0000000e+00 0.0000000e+00 0.0000000e+00
 2.5000000e+04 3.7966320e-08 -2.794570e-24 -4.120430e-24 2.1025300e-24 5.7124200e-24
 1.0000000e+05 1.5072660e-07 1.7606200e-10 4.3143200e-12 7.4816400e-14 6.7412800e-16
 2.0000000e+05 1.9555770e-07 2.4661900e-10 6.1132900e-12 1.0807200e-13 1.5832100e-15
 3.0000000e+05 2.2969710e-07 3.1301400e-10 7.8482200e-12 1.4079900e-13 1.5774900e-15
 4.0000000e+05 2.5839230e-07 3.7968900e-10 9.6286200e-12 1.7430700e-13 3.1264000e-15
 5.0000000e+05 2.8190550e-07 4.4512400e-10 1.1416600e-11 2.0920500e-13 2.5287000e-15
 6.0000000e+05 2.9967170e-07 5.0651100e-10 1.3136400e-11 2.4296300e-13 4.0542200e-15
 7.0000000e+05 3.1133940e-07 5.6122400e-10 1.4716500e-11 2.7586000e-13 4.0485200e-15
 8.0000000e+05 3.1702400e-07 6.0739800e-10 1.6102000e-11 3.0456200e-13 4.5109100e-15
 9.0000000e+05 3.1726890e-07 6.4404700e-10 1.7260300e-11 3.2983800e-13 3.9113700e-15
 1.0000000e+06 3.1288250e-07 6.7094800e-10 1.8174700e-11 3.5260000e-13 4.9582600e-15
 1.1000000e+06 3.0478530e-07 6.8843000e-10 1.8847500e-11 3.6787600e-13 5.3888200e-15
 1.2000000e+06 2.9388310e-07 6.9714600e-10 1.9286100e-11 3.8106400e-13 6.4377800e-15
 1.3000000e+06 2.8099830e-07 6.9789700e-10 1.9511000e-11 3.8947000e-13 6.0794500e-15
 1.4000000e+06 2.6683350e-07 6.9150700e-10 1.9531600e-11 3.9440100e-13 5.9347100e-15
 1.5000000e+06 3.1973140e-07 1.0829090e-09 3.0934700e-11 6.3128100e-13 9.5938800e-15
 1.6000000e+06 2.9421200e-07 4.6105800e-10 1.3352700e-11 2.7618300e-13 3.8596200e-15
 1.7000000e+06 1.2609020e-07 4.0528000e-10 1.1761700e-11 2.4402900e-13 4.1235100e-15
 1.8000000e+06 6.2953170e-08 1.1614920e-09 3.4160900e-11 7.1832200e-13 1.2246500e-14
 1.9000000e+06 3.6047800e-11 -4.332160e-28 0.0000000e+00 1.7291000e-28 -1.333710e-27
 2.0000000e+06 5.8341840e-07 8.5307100e-10 2.5602000e-11 5.3764300e-13 1.3666200e-14
 2.1000000e+06 2.5905650e-07 2.9102500e-10 8.7977500e-12 1.9006300e-13 3.2329500e-15
 2.2000000e+06 4.5098580e-07 9.2402000e-10 2.8221200e-11 6.1696000e-13 1.7146500e-14
 2.3000000e+06 1.8352100e-11 3.0067500e-28 5.4319700e-28 5.3661500e-28 1.8559200e-27
 2.4000000e+06 2.8409920e-07 5.8372900e-10 1.8267600e-11 4.0838200e-13 7.2978300e-15
 2.5000000e+06 1.2594700e-11 -1.597830e-28 -1.491140e-27 -1.173770e-29 3.1065500e-29
 2.6000000e+06 2.8337710e-07 2.7767300e-10 8.7807900e-12 1.9837700e-13 3.7097000e-15
 2.7000000e+06 5.8229010e-07 2.8905700e-10 9.2444000e-12 2.1148000e-13 4.0970400e-15
 2.8000000e+06 6.7146800e-12 1.1696000e-28 -3.312430e-28 -2.630750e-28 7.7842200e-28
 2.9000000e+06 1.5731040e-07 1.0283300e-11 3.3469100e-13 7.4434500e-15 2.5774300e-16
 3.0000000e+06 4.6399280e-07 -3.083140e-23 -5.035650e-23 2.4077600e-23 7.8968200e-23
 3.1000000e+06 3.7826760e-07 -6.168670e-23 -5.971330e-23 2.7640200e-24 2.9856600e-23
 3.2000000e+06 2.3592400e-12 1.0183900e-28 -2.793220e-28 -8.811600e-30 -1.454800e-28
 3.3000000e+06 6.3123510e-07 -1.140740e-23 -3.736750e-23 -2.654810e-23 -3.425350e-23
 3.4000000e+06 1.2104100e-12 1.0241400e-29 1.0748000e-28 -7.496060e-30 9.5537900e-29
 3.5000000e+06 8.1792000e-13 -2.719390e-29 -8.069790e-30 1.8354900e-29 -2.824430e-29
 3.6000000e+06 5.2508700e-13 6.1993400e-30 -4.144510e-29 3.9133800e-30 -1.178590e-28
 3.7000000e+06 3.1567800e-13 3.7270000e-30 -2.491650e-29 2.3527000e-30 -7.085620e-29
 3.8000000e+06 4.8059140e-07 -2.139100e-23 3.7933000e-23 -2.858710e-24 2.0151900e-23
 3.9000000e+06 8.3305400e-14 -1.505460e-30 -4.931470e-30 -3.503610e-30 -4.520510e-30
 4.0000000e+06 3.2225100e-14 -2.371970e-30 -3.497340e-30 1.7845900e-30 4.8485900e-30
 4.1000000e+06 8.4816600e-15 -6.786520e-31 2.5104600e-31 1.1977400e-31 -5.230130e-31
 4.2000000e+06 4.8569300e-07 -5.620780e-23 1.4375900e-23 7.5245600e-24 -7.187950e-24
 4.3000000e+06 6.7101750e-07 -1.212640e-23 -3.972250e-23 -2.822120e-23 -3.641230e-23


#           E1 1.6000000e+07  incident energy
#          NEP            61  number of secondary energy points
#           ND             0  number of discrete lines
#           NA             4  number of angular parameters
# Energy       PL( 0)        PL( 1)        PL( 2)        PL( 3)        PL( 4)       
 0.0000000e+00 0.0000000e+00 0.0000000e+00 0.0000000e+00 0.0000000e+00 0.0000000e+00
 2.6666670e+04 4.9297750e-08 -2.194230e-24 3.8910700e-24 -2.932390e-25 2.0671300e-24
 1.0666670e+05 1.9612490e-07 2.4279400e-10 6.3644400e-12 1.1808500e-13 -2.687970e-16
 2.1333330e+05 2.5513750e-07 3.4465200e-10 9.1482200e-12 1.7387200e-13 5.1761000e-15
 3.2000000e+05 3.0064730e-07 4.4383600e-10 1.1923500e-11 2.2927800e-13 3.5559700e-15
 4.2666670e+05 3.3867850e-07 5.4557900e-10 1.4835000e-11 2.8754800e-13 6.7004700e-15
 5.3333330e+05 3.6905280e-07 6.4701200e-10 1.7805500e-11 3.5092600e-13 4.6390700e-15
 6.4000000e+05 3.9087390e-07 7.4377600e-10 2.0710300e-11 4.1204700e-13 6.3341700e-15
 7.4666670e+05 4.0382180e-07 8.3207000e-10 2.3445700e-11 4.6709200e-13 1.0282100e-14
 8.5333330e+05 4.0836770e-07 9.0944000e-10 2.5922400e-11 5.2605000e-13 7.0574500e-15
 9.6000000e+05 4.0558670e-07 9.7484100e-10 2.8105300e-11 5.7726200e-13 8.8866900e-15
 1.0666670e+06 3.9685890e-07 1.0283480e-09 2.9987300e-11 6.2567900e-13 9.5479000e-15
 1.1733330e+06 3.8362020e-07 1.0707700e-09 3.1579400e-11 6.6573800e-13 1.4691300e-14
 1.2800000e+06 3.6719680e-07 1.1033280e-09 3.2901300e-11 6.9974200e-13 1.4459000e-14
 1.3866670e+06 3.4873680e-07 1.1273770e-09 3.3992200e-11 7.2788200e-13 1.2644700e-14
 1.4933330e+06 3.2915300e-07 1.1442350e-09 3.4877500e-11 7.6150700e-13 1.5958200e-14
 1.6000000e+06 3.0914770e-07 1.1551380e-09 3.5593200e-11 7.8387300e-13 1.6927800e-14
 1.7066670e+06 2.8924610e-07 1.1611370e-09 3.6165300e-11 8.0633900e-13 1.6021300e-14
 1.8133330e+06 2.6982830e-07 1.1631350e-09 3.6614700e-11 8.2135400e-13 1.5291400e-14
 1.9200000e+06 2.5114450e-07 1.1618160e-09 3.6959300e-11 8.4139400e-13 1.3186800e-14
 2.0266670e+06 2.3335580e-07 1.1577740e-09 3.7214000e-11 8.5407600e-13 1.4208800e-14
 2.1333330e+06 2.1655210e-07 1.1514100e-09 3.7394700e-11 8.6810800e-13 1.4861000e-14
 2.2400000e+06 2.0077230e-07 1.1430180e-09 3.7501400e-11 8.7841000e-13 1.5725700e-14
 2.3466670e+06 1.8601870e-07 1.1327780e-09 3.7544900e-11 8.9061800e-13 1.7845100e-14
 2.4533330e+06 1.7226780e-07 1.1207930e-09 3.7528500e-11 8.9854400e-13 1.7866200e-14
 2.5600000e+06 1.5947850e-07 1.1070510e-09 3.7437800e-11 9.0453600e-13 1.6293900e-14
 2.6666670e+06 1.4759860e-07 1.0914990e-09 3.7278000e-11 9.0985300e-13 1.7222600e-14
 2.7733330e+06 1.3656960e-07 1.0740140e-09 3.7042200e-11 9.1297300e-13 1.7561700e-14
 2.8800000e+06 1.2633130e-07 1.0544290e-09 3.6722000e-11 9.1428500e-13 1.7566100e-14
 2.9866670e+06 1.1682290e-07 1.0325440e-09 3.6308700e-11 9.1230900e-13 1.7755700e-14
 3.0933330e+06 1.0798500e-07 1.0081280e-09 3.5791200e-11 9.0818100e-13 1.7946600e-14
 3.2000000e+06 9.9760780e-08 9.8093300e-10 3.5158100e-11 9.0033400e-13 1.8021200e-14
 3.3066670e+06 9.2096850e-08 9.5070100e-10 3.4397600e-11 8.8905500e-13 1.7619800e-14
 3.4133330e+06 8.4943540e-08 9.1717000e-10 3.3495600e-11 8.7442100e-13 1.7610900e-14
 3.5200000e+06 9.4390740e-08 1.3691400e-09 5.0480800e-11 1.3299400e-12 2.7604900e-14
 3.6266670e+06 1.0909690e-07 1.0289390e-09 3.8375500e-11 1.0229100e-12 2.1105900e-14
 3.7333330e+06 3.5413740e-08 5.7373600e-10 2.1606900e-11 5.8121900e-13 1.1867800e-14
 3.8400000e+06 2.6288590e-08 7.8275600e-10 2.9614300e-11 8.0095300e-13 1.6940000e-14
 3.9466670e+06 8.0995410e-08 7.0119800e-10 2.6902700e-11 7.3748400e-13 1.5428800e-14
 4.0533330e+06 1.0863910e-07 6.0622100e-10 2.3406300e-11 6.4557300e-13 1.3844600e-14
 4.1600000e+06 8.6755100e-08 1.0407000e-09 4.0579500e-11 1.1309400e-12 2.4254800e-14
 4.2666670e+06 5.5703500e-12 -4.324660e-28 -1.648750e-28 7.8742900e-29 5.2210500e-28
 4.3733330e+06 4.4998800e-12 7.8381300e-29 -2.219840e-28 -1.763010e-28 5.2166300e-28
 4.4800000e+06 5.9053670e-08 6.4123900e-10 2.5543700e-11 7.2715200e-13 1.6121600e-14
 4.5866670e+06 5.4334190e-08 3.0146400e-10 1.2118800e-11 3.4807400e-13 7.7929000e-15
 4.6933330e+06 1.3248830e-07 3.0953300e-10 1.2566300e-11 3.6461400e-13 8.3536200e-15
 4.8000000e+06 1.6925900e-12 -1.124690e-28 -1.836940e-28 8.7832300e-29 2.8806600e-28
 4.9066670e+06 3.4311820e-08 1.7519800e-11 7.2331100e-13 2.1434500e-14 4.3414900e-16
 5.0133330e+06 9.4777500e-08 -6.297790e-24 -1.028610e-23 4.9182200e-24 1.6130400e-23
 5.1200000e+06 6.7582220e-08 2.4653600e-25 6.6678200e-25 -2.372220e-25 2.1670400e-24
 5.2266670e+06 5.2524660e-08 1.9827400e-24 -3.109330e-24 1.4422600e-24 -2.850220e-24
 5.3333330e+06 4.8519060e-08 -3.224000e-24 -5.265710e-24 2.5177600e-24 8.2575900e-24
 5.4400000e+06 2.0919000e-13 -1.003630e-29 2.0639200e-30 1.6572600e-30 -2.115510e-29
 5.5466670e+06 1.2870000e-13 3.6289500e-30 -5.079140e-30 -2.674260e-30 1.3015300e-29
 5.6533330e+06 7.3988400e-14 8.3395200e-31 -4.379920e-30 -1.698120e-30 -4.014930e-30
 5.7600000e+06 3.8871200e-14 -7.024650e-31 -2.301070e-30 -1.634820e-30 -2.109320e-30
 5.8666670e+06 7.1781750e-08 -1.732610e-24 7.0821600e-25 -1.958530e-24 1.2393800e-24
 5.9733330e+06 6.7114000e-15 -7.766910e-31 1.9864900e-31 1.0397600e-31 -9.932450e-32
 6.0800000e+06 1.7113800e-15 -3.360220e-32 -8.442460e-32 -5.097320e-32 -1.308580e-31
 6.1866670e+06 7.1926770e-08 3.1048100e-24 -8.515760e-24 -2.686410e-25 -4.435290e-24
 6.2933330e+06 1.0439730e-07 -5.008670e-24 1.0300100e-24 8.2706700e-25 -1.055760e-23


#           E1 1.8000000e+07  incident energy
#          NEP            72  number of secondary energy points
#           ND             0  number of discrete lines
#           NA             4  number of angular parameters
# Energy       PL( 0)        PL( 1)        PL( 2)        PL( 3)        PL( 4)       
 0.0000000e+00 0.0000000e+00 0.0000000e+00 0.0000000e+00 0.0000000e+00 0.0000000e+00
 3.0000000e+04 7.7990860e-08 -3.741770e-24 7.6947700e-25 6.1786700e-25 -7.887130e-24
 1.2000000e+05 3.1187480e-07 2.2515100e-10 6.2691600e-12 1.2394000e-13 1.4370700e-15
 2.4000000e+05 3.7721580e-07 3.2360400e-10 9.1359200e-12 1.8564500e-13 1.7250000e-15
 3.6000000e+05 4.1107530e-07 4.2177000e-10 1.2075200e-11 2.4566400e-13 3.4360900e-15
 4.8000000e+05 4.6539610e-07 5.2206600e-10 1.5147800e-11 3.1251300e-13 5.5690900e-15
 6.0000000e+05 5.0376540e-07 6.1993100e-10 1.8226900e-11 3.8131900e-13 6.7556800e-15
 7.2000000e+05 5.2525500e-07 7.1037300e-10 2.1165700e-11 4.5052200e-13 7.5315300e-15
 8.4000000e+05 5.3039920e-07 7.8994900e-10 2.3845800e-11 5.1386500e-13 7.4744100e-15
 9.6000000e+05 5.2024630e-07 8.5714800e-10 2.6210800e-11 5.7332800e-13 9.9742000e-15
 1.0800000e+06 4.9657910e-07 9.1204000e-10 2.8249000e-11 6.2375300e-13 9.8545600e-15
 1.2000000e+06 4.6190760e-07 9.5570700e-10 2.9976100e-11 6.7074300e-13 1.3079600e-14
 1.3200000e+06 3.8966420e-07 9.8972800e-10 3.1433800e-11 7.1310900e-13 1.2183700e-14
 1.4400000e+06 3.3669920e-07 1.0158020e-09 3.2661100e-11 7.5010400e-13 1.3286500e-14
 1.5600000e+06 2.2864360e-07 1.0355530e-09 3.3704600e-11 7.8459100e-13 1.3959800e-14
 1.6800000e+06 2.1400480e-07 1.0504030e-09 3.4604200e-11 8.1506200e-13 1.5064000e-14
 1.8000000e+06 1.9934500e-07 1.0615580e-09 3.5393400e-11 8.4136500e-13 1.5538500e-14
 1.9200000e+06 1.8499840e-07 1.0699970e-09 3.6097300e-11 8.7142800e-13 1.6476400e-14
 2.0400000e+06 1.7088200e-07 1.0764840e-09 3.6746400e-11 8.9837800e-13 1.6994400e-14
 2.1600000e+06 1.5753810e-07 1.0816080e-09 3.7351000e-11 9.2001300e-13 1.9007800e-14
 2.2800000e+06 1.4514380e-07 1.0857800e-09 3.7928800e-11 9.4500400e-13 1.7615000e-14
 2.4000000e+06 1.3369390e-07 1.0892930e-09 3.8485200e-11 9.7178100e-13 1.9087700e-14
 2.5200000e+06 1.2315730e-07 1.0923100e-09 3.9029900e-11 9.9577500e-13 1.9884900e-14
 2.6400000e+06 1.1348580e-07 1.0949030e-09 3.9561000e-11 1.0217300e-12 2.1498300e-14
 2.7600000e+06 1.0462230e-07 1.0970600e-09 4.0079700e-11 1.0466100e-12 2.0968700e-14
 2.8800000e+06 9.6505930e-08 1.0987100e-09 4.0580500e-11 1.0706500e-12 2.1430900e-14
