#    [ 3234 :  6 :   5 ]    32 -  73
# Energy and angle distribution
#           NK           308  number of subsections

#   Subsection             0
#          ZAP             1
#          LIP             0  product modifier
#          LAW             1  distribution law
#           NP            78  yield energy points
#   Energy[eV]  CrossSec [b]  Multiplicity  CrossSec x M
 1.0000000e+06 3.7134860e-06 0.0000000e+00 0.0000000e+00
 6.7829400e+06 1.2452504e-03 0.0000000e+00 0.0000000e+00
 7.0000000e+06 1.3936200e-03 1.7203680e-02 2.3975393e-05
 7.5000000e+06 1.8326110e-03 1.6589820e-01 3.0402687e-04
 8.0000000e+06 2.3978780e-03 3.9962900e-01 9.5826159e-04
 8.5000000e+06 3.1296270e-03 7.3688910e-01 2.3061880e-03
 9.0000000e+06 4.0859730e-03 9.8044730e-01 4.0060812e-03
 9.5000000e+06 5.3573530e-03 9.8888670e-01 5.2978151e-03
 1.0000000e+07 7.1040190e-03 9.9195160e-01 7.0468430e-03
 1.0500000e+07 9.6738390e-03 9.9374200e-01 9.6133001e-03
 1.1000000e+07 1.3843480e-02 9.9526280e-01 1.3777901e-02
 1.1500000e+07 1.8449300e-02 9.9624540e-01 1.8380030e-02
 1.2000000e+07 2.1232490e-02 9.9689910e-01 2.1166650e-02
 1.2500000e+07 2.6369960e-02 9.9718470e-01 2.6295721e-02
 1.3000000e+07 3.4178520e-02 9.9701570e-01 3.4076521e-02
 1.3500000e+07 4.4567230e-02 9.9644670e-01 4.4408869e-02
 1.4000000e+07 5.7115030e-02 9.9568470e-01 5.6868562e-02
 1.4500000e+07 7.0245470e-02 9.9487540e-01 6.9885490e-02
 1.5000000e+07 8.1171540e-02 9.9404480e-01 8.0688147e-02
 1.5500000e+07 8.7605650e-02 9.9306370e-01 8.6997991e-02
 1.6000000e+07 8.9793280e-02 9.9211980e-01 8.9085691e-02
 1.6500000e+07 8.9888820e-02 9.9095160e-01 8.9075470e-02
 1.7000000e+07 8.9568530e-02 9.8949610e-01 8.8627711e-02
 1.7500000e+07 8.8810480e-02 9.8774580e-01 8.7722179e-02
 1.8000000e+07 8.6464630e-02 1.0089640e+00 8.7239699e-02
 1.8500000e+07 8.1655150e-02 1.1228170e+00 9.1683791e-02
 1.9000000e+07 7.4660200e-02 1.2516110e+00 9.3445528e-02
 1.9500000e+07 6.6585290e-02 1.3752090e+00 9.1568690e-02
 2.0000000e+07 5.8542780e-02 1.4706590e+00 8.6096466e-02
 2.1000000e+07 4.4739850e-02 1.6092340e+00 7.1996888e-02
 2.2000000e+07 3.4768500e-02 1.6853390e+00 5.8596709e-02
 2.3000000e+07 2.7780940e-02 1.7244060e+00 4.7905620e-02
 2.4000000e+07 2.2812780e-02 1.7416230e+00 3.9731262e-02
 2.5000000e+07 1.9185690e-02 1.7459250e+00 3.3496776e-02
 2.6000000e+07 1.6465030e-02 1.7453260e+00 2.8736845e-02
 2.7000000e+07 1.4374450e-02 1.7524790e+00 2.5190922e-02
 2.8000000e+07 1.2735020e-02 1.7806920e+00 2.2677148e-02
 2.9000000e+07 1.1427780e-02 1.8335630e+00 2.0953555e-02
 3.0000000e+07 1.0371350e-02 1.9020660e+00 1.9726992e-02
 3.2000000e+07 8.7980620e-03 2.0291140e+00 1.7852271e-02
 3.4000000e+07 7.7194580e-03 2.1258580e+00 1.6410472e-02
 3.6000000e+07 6.9683710e-03 2.1811170e+00 1.5198832e-02
 3.8000000e+07 6.4424610e-03 2.2084510e+00 1.4227859e-02
 4.0000000e+07 6.0750560e-03 2.2286410e+00 1.3539119e-02
 4.2000000e+07 5.8206830e-03 2.2686500e+00 1.3205092e-02
 4.4000000e+07 5.6473240e-03 2.3310350e+00 1.3164110e-02
 4.6000000e+07 5.5319530e-03 2.4026230e+00 1.3291198e-02
 4.8000000e+07 5.4577850e-03 2.4640290e+00 1.3448141e-02
 5.0000000e+07 5.4124850e-03 2.5207660e+00 1.3643608e-02
 5.2000000e+07 5.3869450e-03 2.5643940e+00 1.3814249e-02
 5.4000000e+07 5.3744250e-03 2.6077190e+00 1.4014990e-02
 5.6000000e+07 5.3699390e-03 2.6565220e+00 1.4265361e-02
 5.8000000e+07 5.3698070e-03 2.7033300e+00 1.4516360e-02
 6.0000000e+07 5.3713250e-03 2.7147030e+00 1.4581552e-02
 6.2000000e+07 5.3725220e-03 2.7572750e+00 1.4813521e-02
 6.4000000e+07 5.3719790e-03 2.7920440e+00 1.4998802e-02
 6.6000000e+07 5.3686950e-03 2.8333200e+00 1.5211231e-02
 6.8000000e+07 5.3619820e-03 2.8734090e+00 1.5407167e-02
 7.0000000e+07 5.3513930e-03 2.9101770e+00 1.5573501e-02
 7.2000000e+07 5.3366630e-03 2.9527800e+00 1.5757992e-02
 7.4000000e+07 5.3176650e-03 2.9927890e+00 1.5914649e-02
 7.6000000e+07 5.2943770e-03 3.0354390e+00 1.6070758e-02
 7.8000000e+07 5.2668540e-03 3.0727580e+00 1.6183768e-02
 8.0000000e+07 5.2352160e-03 3.1184600e+00 1.6325812e-02
 8.5000000e+07 5.1392550e-03 3.2104320e+00 1.6499229e-02
 9.0000000e+07 5.0219590e-03 3.3050590e+00 1.6597871e-02
 9.5000000e+07 4.8872470e-03 3.3975160e+00 1.6604500e-02
 1.0000000e+08 4.7392700e-03 3.4999150e+00 1.6587042e-02
 1.1000000e+08 4.4201050e-03 3.6852250e+00 1.6289081e-02
 1.2000000e+08 4.0964190e-03 3.8713150e+00 1.5858528e-02
 1.3000000e+08 3.7976290e-03 4.0559940e+00 1.5403160e-02
 1.4000000e+08 3.5504670e-03 4.2431850e+00 1.5065288e-02
 1.5000000e+08 3.2428360e-03 4.6779300e+00 1.5169760e-02
 1.6000000e+08 2.9770380e-03 4.8606600e+00 1.4470370e-02
 1.7000000e+08 2.7455400e-03 5.0423780e+00 1.3844050e-02
 1.8000000e+08 2.5424660e-03 5.2194880e+00 1.3270371e-02
 1.9000000e+08 2.3631700e-03 5.3841030e+00 1.2723551e-02
 2.0000000e+08 2.2039410e-03 5.5496450e+00 1.2231090e-02


#           NR             1
#           NE            32
#         LANG             1  1: Legendre, 2:KM systematics, 11-15: tabulated
#          LEP             2  secondary energy interpolation
#           E1 1.0000000e+06  incident energy
#          NEP             3  number of secondary energy points
#           ND             0  number of discrete lines
#           NA             0  number of angular parameters
# Energy       Spectrum
 0.0000000e+00 0.0000000e+00
 5.0000000e-01 2.0000000e+00
 1.0000000e+00 0.0000000e+00


#           E1 6.7829400e+06  incident energy
#          NEP             3  number of secondary energy points
#           ND             0  number of discrete lines
#           NA             0  number of angular parameters
# Energy       Spectrum
 0.0000000e+00 0.0000000e+00
 5.0000000e-01 2.0000000e+00
 1.0000000e+00 0.0000000e+00


#           E1 8.0000000e+06  incident energy
#          NEP            14  number of secondary energy points
#           ND             0  number of discrete lines
#           NA             0  number of angular parameters
# Energy       Spectrum
 0.0000000e+00 0.0000000e+00
 2.5000000e+04 2.8045200e-10
 1.0000000e+05 6.7496300e-10
 2.0000000e+05 5.1949600e-10
 3.0000000e+05 3.5462100e-10
 4.0000000e+05 9.4815090e-06
 5.0000000e+05 5.1033390e-08
 6.0000000e+05 5.5599800e-10
 7.0000000e+05 5.0245400e-10
 8.0000000e+05 3.7643200e-10
 9.0000000e+05 1.3089900e-10
 1.0000000e+06 2.3596700e-11
 1.1000000e+06 2.1573900e-12
 1.2000000e+06 9.2852220e-07


#           E1 1.0000000e+07  incident energy
#          NEP            34  number of secondary energy points
#           ND             0  number of discrete lines
#           NA             3  number of angular parameters
# Energy       PL( 0)        PL( 1)        PL( 2)        PL( 3)       
 0.0000000e+00 0.0000000e+00 0.0000000e+00 0.0000000e+00 0.0000000e+00
 2.5000000e+04 1.7389310e-07 -1.155490e-23 -1.887240e-23 9.0237100e-24
 1.0000000e+05 6.9536360e-07 2.8271700e-11 5.9781700e-13 8.3349600e-15
 2.0000000e+05 2.9218640e-08 2.2851800e-11 4.8660200e-13 7.5265900e-15
 3.0000000e+05 1.7734710e-07 6.3794600e-11 1.3775900e-12 2.0858500e-14
 4.0000000e+05 7.6538570e-07 1.6200000e-11 3.5514900e-13 4.8558000e-15
 5.0000000e+05 1.9084920e-09 2.2621200e-11 4.9695600e-13 7.7968600e-15
 6.0000000e+05 8.7755900e-07 -6.459400e-23 -9.524030e-23 4.8598200e-23
 7.0000000e+05 4.3945110e-07 -7.941600e-24 -2.601440e-23 -1.848220e-23
 8.0000000e+05 1.3542170e-06 -6.497130e-23 1.3361000e-23 1.0728500e-23
 9.0000000e+05 5.5265900e-10 1.5583300e-26 -2.181070e-26 -1.148370e-26
 1.0000000e+06 2.8487700e-10 -2.279420e-26 8.4320000e-27 4.0228900e-27
 1.1000000e+06 2.4132240e-08 -1.603540e-24 -2.619040e-24 1.2522800e-24
 1.2000000e+06 2.2818290e-06 -1.489810e-22 2.2513100e-22 -4.559590e-23
 1.3000000e+06 1.0195600e-10 -1.794960e-26 1.0059200e-27 -6.534180e-28
 1.4000000e+06 7.5171200e-11 -5.836080e-27 -2.224970e-27 1.0626300e-27
 1.5000000e+06 1.9706760e-06 -3.869320e-23 -9.721580e-23 -5.869620e-23
 1.6000000e+06 4.3066900e-11 -5.463700e-28 -5.098900e-27 -4.013660e-29
 1.7000000e+06 3.1896500e-11 1.3768500e-27 -3.776380e-27 -1.191310e-28
 1.8000000e+06 4.1679430e-07 4.9208000e-24 -3.289750e-23 3.1062900e-24
 1.9000000e+06 1.3218800e-11 -2.155690e-27 -2.086720e-27 9.6590800e-29
 2.0000000e+06 9.1605000e-12 -7.329680e-28 2.7113900e-28 1.2936000e-28
 2.1000000e+06 5.9147000e-12 -1.966500e-28 -5.835590e-29 1.3273200e-28
 2.2000000e+06 3.8789100e-12 9.9794400e-29 -4.975130e-28 8.7732500e-30
 2.3000000e+06 2.6810400e-12 7.5597400e-29 -1.058070e-28 -5.570950e-29
 2.4000000e+06 8.3320020e-07 -2.011110e-23 8.2205500e-24 -2.273340e-23
 2.5000000e+06 6.7572120e-08 1.1770100e-24 -3.333410e-24 -2.647410e-24
 2.6000000e+06 7.2085800e-13 -3.745750e-29 7.1121600e-30 -1.537610e-29
 2.7000000e+06 4.0322900e-13 -7.999330e-29 -5.171860e-29 8.0807500e-30
 2.8000000e+06 2.0376100e-13 2.2966700e-30 -1.206210e-29 -4.676560e-30
 2.9000000e+06 8.5828000e-14 -4.459820e-30 8.4679900e-31 -1.830730e-30
 3.0000000e+06 2.5228500e-14 4.1333600e-31 7.4673000e-31 7.3768100e-31
 3.1000000e+06 3.0887900e-15 7.0649900e-32 3.0474800e-31 -4.036990e-32
 3.2000000e+06 1.2838780e-07 3.6201500e-24 -5.066820e-24 -2.667780e-24


#           E1 1.2000000e+07  incident energy
#          NEP            54  number of secondary energy points
#           ND             0  number of discrete lines
#           NA             4  number of angular parameters
# Energy       PL( 0)        PL( 1)        PL( 2)        PL( 3)        PL( 4)       
 0.0000000e+00 0.0000000e+00 0.0000000e+00 0.0000000e+00 0.0000000e+00 0.0000000e+00
 2.5000000e+04 4.1181720e-08 -7.442210e-25 -2.437850e-24 -1.732000e-24 -2.234700e-24
 1.0000000e+05 1.6402860e-07 8.3580200e-11 1.9308600e-12 3.1647800e-14 6.7382700e-16
 2.0000000e+05 2.5652780e-07 1.3925000e-10 3.2523800e-12 5.3550300e-14 -1.497390e-17
 3.0000000e+05 3.3315710e-07 1.9235000e-10 4.5450500e-12 7.6196200e-14 1.0209100e-15
 4.0000000e+05 3.9409630e-07 2.4157500e-10 5.7728500e-12 9.7949500e-14 1.6325100e-15
 5.0000000e+05 4.3959500e-07 2.8551700e-10 6.8980100e-12 1.1776800e-13 1.0616400e-15
 6.0000000e+05 4.7073320e-07 3.2331500e-10 7.8981700e-12 1.3827600e-13 1.6351400e-15
 7.0000000e+05 4.8922910e-07 3.5463500e-10 8.7574400e-12 1.5394700e-13 2.2915200e-15
 8.0000000e+05 4.9710740e-07 3.7950800e-10 9.4728600e-12 1.6956500e-13 2.3998300e-15
 9.0000000e+05 4.9636110e-07 3.9820400e-10 1.0047500e-11 1.8154900e-13 3.2143600e-15
 1.0000000e+06 4.8879120e-07 4.1111100e-10 1.0482000e-11 1.9196500e-13 2.7289900e-15
 1.1000000e+06 4.7648240e-07 4.1866400e-10 1.0788400e-11 1.9837100e-13 3.0537600e-15
 1.2000000e+06 4.6067980e-07 4.2127700e-10 1.0967400e-11 2.0341200e-13 3.5942300e-15
 1.3000000e+06 4.4248110e-07 4.1931700e-10 1.1030100e-11 2.0698200e-13 3.6104100e-15
 1.4000000e+06 4.2282200e-07 4.1306700e-10 1.0975700e-11 2.0759300e-13 2.7472800e-15
 1.5000000e+06 4.0238320e-07 4.0272500e-10 1.0810800e-11 2.0784600e-13 2.6325200e-15
 1.6000000e+06 3.8167620e-07 3.8839400e-10 1.0529300e-11 2.0421700e-13 4.0174300e-15
 1.7000000e+06 3.6108150e-07 3.7006800e-10 1.0134000e-11 1.9818400e-13 3.1978000e-15
 1.8000000e+06 2.9347410e-07 3.8063100e-10 1.0527700e-11 2.0694900e-13 3.7794900e-15
 1.9000000e+06 1.3414460e-07 2.6247900e-10 7.3145000e-12 1.4487300e-13 2.4180000e-15
 2.0000000e+06 2.6517570e-07 3.6769600e-10 1.0362300e-11 2.0890800e-13 3.9329800e-15
 2.1000000e+06 4.5721310e-07 2.5564800e-10 7.2806300e-12 1.4832500e-13 2.8291000e-15
 2.2000000e+06 7.2861500e-08 1.4396000e-10 4.1303600e-12 8.4580600e-14 1.2714400e-15
 2.3000000e+06 1.4253090e-07 2.6980000e-10 7.8283600e-12 1.6265100e-13 2.1263100e-15
 2.4000000e+06 1.4605650e-07 5.0877000e-11 1.4950400e-12 3.2017300e-14 1.3879000e-15
 2.5000000e+06 6.1525740e-09 6.8997900e-11 2.0321500e-12 4.2666500e-14 7.5456500e-16
 2.6000000e+06 1.8855810e-07 -3.740650e-23 -2.418470e-23 3.7787200e-24 1.8138500e-23
 2.7000000e+06 1.0167700e-07 -1.837470e-24 -6.019020e-24 -4.276270e-24 -5.517430e-24
 2.8000000e+06 3.1367970e-07 -2.308890e-23 -3.404320e-23 1.7371200e-23 4.7196300e-23
 2.9000000e+06 2.2902700e-11 -1.190080e-27 2.2596300e-28 -4.885190e-28 1.5252500e-27
 3.0000000e+06 1.7963800e-11 -2.929480e-27 -2.835760e-27 1.3126300e-28 1.4178800e-27
 3.1000000e+06 3.1133820e-08 3.6757500e-25 -2.457390e-24 2.3203500e-25 -6.988200e-24
 3.2000000e+06 3.6461890e-07 -6.589260e-24 -2.158450e-23 -1.533490e-23 -1.978580e-23
 3.3000000e+06 8.2008100e-12 -1.443780e-27 8.0911100e-29 -5.255770e-29 9.1025000e-28
 3.4000000e+06 6.2167800e-12 -4.974290e-28 1.8400900e-28 8.7790200e-29 -3.833510e-28
 3.5000000e+06 2.3157850e-07 1.9594000e-24 2.0563300e-23 -1.434160e-24 1.8278500e-23
 3.6000000e+06 3.4653800e-12 -2.690420e-28 -1.025710e-28 4.8986800e-29 3.2480700e-28
 3.7000000e+06 2.5346500e-12 -4.462330e-28 2.5007400e-29 -1.624420e-29 2.8133400e-28
 3.8000000e+06 1.1106830e-07 1.9346500e-24 -5.479130e-24 -4.351550e-24 1.2876000e-23
 3.9000000e+06 1.2929100e-12 -2.108430e-28 -2.040980e-28 9.4473400e-30 1.0204900e-28
 4.0000000e+06 9.0066300e-13 -1.142630e-29 -1.066340e-28 -8.393820e-31 2.2215400e-30
 4.1000000e+06 6.1899800e-13 -1.118630e-29 -3.664310e-29 -2.603340e-29 -3.358950e-29
 4.2000000e+06 4.2156700e-13 4.7516500e-30 -2.495570e-29 -9.675480e-30 -2.287610e-29
 4.3000000e+06 2.8548700e-13 -6.890840e-30 2.8166800e-30 -7.789350e-30 4.9291900e-30
 4.4000000e+06 1.3459090e-07 -5.990610e-24 1.0623200e-23 -8.005900e-25 5.6436000e-24
 4.5000000e+06 1.7474840e-08 -1.286260e-24 -1.896520e-24 9.6773600e-25 2.6292700e-24
 4.6000000e+06 7.4577400e-14 -5.967240e-30 2.2074000e-30 1.0531500e-30 -4.598740e-30
 4.7000000e+06 4.1485700e-14 1.7907800e-30 -4.911690e-30 -1.549460e-31 -2.558170e-30
 4.8000000e+06 2.0401000e-14 -1.501650e-30 -2.214090e-30 1.1297800e-30 3.0695400e-30
 4.9000000e+06 8.2596000e-15 3.5653500e-31 -9.778940e-31 -3.084900e-32 -5.093200e-31
 5.0000000e+06 2.3466000e-15 -4.607440e-32 -1.157610e-31 -6.989320e-32 -1.794290e-31
 5.1000000e+06 2.8101200e-16 -6.782830e-33 2.7725300e-33 -7.667250e-33 4.8519300e-33
 5.2000000e+06 2.1251420e-08 2.3206600e-24 -3.354750e-24 5.2091000e-25 1.3104500e-24


#           E1 1.4000000e+07  incident energy
#          NEP            74  number of secondary energy points
#           ND             0  number of discrete lines
#           NA             4  number of angular parameters
# Energy       PL( 0)        PL( 1)        PL( 2)        PL( 3)        PL( 4)       
 0.0000000e+00 0.0000000e+00 0.0000000e+00 0.0000000e+00 0.0000000e+00 0.0000000e+00
 2.5000000e+04 3.4490970e-08 -5.150330e-25 -1.020890e-24 1.8081200e-24 3.9134100e-24
 1.0000000e+05 1.3717130e-07 1.1972700e-10 2.9874100e-12 5.3300900e-14 6.1058100e-16
 2.0000000e+05 2.1459250e-07 2.0134700e-10 5.0811100e-12 9.1526300e-14 9.4142900e-16
 3.0000000e+05 2.7886710e-07 2.8108800e-10 7.1717400e-12 1.2854600e-13 4.8923900e-15
 4.0000000e+05 3.3013750e-07 3.5728600e-10 9.2178100e-12 1.7032500e-13 4.9926700e-15
 5.0000000e+05 3.6859580e-07 4.2801800e-10 1.1173500e-11 2.0881200e-13 5.3364100e-15
 6.0000000e+05 3.9512770e-07 4.9212400e-10 1.2986800e-11 2.4756600e-13 1.7286600e-15
 7.0000000e+05 4.1114880e-07 5.4913100e-10 1.4651700e-11 2.7769500e-13 1.3601800e-15
 8.0000000e+05 4.1832660e-07 5.9909500e-10 1.6148700e-11 3.1251000e-13 6.5366900e-15
 9.0000000e+05 4.1834600e-07 6.4241800e-10 1.7503900e-11 3.4374100e-13 4.2312700e-15
 1.0000000e+06 4.1268460e-07 6.7971200e-10 1.8719000e-11 3.6635200e-13 5.1219000e-15
 1.1000000e+06 4.0303030e-07 7.1164000e-10 1.9806600e-11 3.9524300e-13 7.0563800e-15
 1.2000000e+06 3.9044540e-07 7.3894300e-10 2.0782100e-11 4.1774800e-13 6.7085400e-15
 1.3000000e+06 3.7585550e-07 7.6229500e-10 2.1654600e-11 4.4025800e-13 7.5874000e-15
 1.4000000e+06 3.6004440e-07 7.8229200e-10 2.2450300e-11 4.5901700e-13 6.5157900e-15
 1.5000000e+06 3.4358010e-07 7.9948200e-10 2.3178200e-11 4.8137500e-13 4.4002500e-15
 1.6000000e+06 3.2690240e-07 8.1429300e-10 2.3842500e-11 4.9969800e-13 1.1113700e-14
 1.7000000e+06 3.1032290e-07 8.2708100e-10 2.4461500e-11 5.1389600e-13 8.8721300e-15
 1.8000000e+06 2.9405910e-07 8.3806800e-10 2.5033800e-11 5.3573700e-13 6.9191500e-15
 1.9000000e+06 2.7827370e-07 8.4742700e-10 2.5554800e-11 5.4841400e-13 1.1710000e-14
 2.0000000e+06 2.6304890e-07 8.5521700e-10 2.6046200e-11 5.6243700e-13 6.0589200e-15
 2.1000000e+06 2.4842740e-07 8.6139500e-10 2.6484600e-11 5.7896300e-13 9.2066100e-15
 2.2000000e+06 2.3442370e-07 8.6589600e-10 2.6875400e-11 5.9453200e-13 8.5168200e-15
 2.3000000e+06 2.2102770e-07 8.6855000e-10 2.7217300e-11 6.1320000e-13 1.0831800e-14
 2.4000000e+06 2.0821610e-07 8.6916100e-10 2.7487700e-11 6.2079900e-13 1.0825700e-14
 2.5000000e+06 1.9596350e-07 8.6749000e-10 2.7690400e-11 6.3193100e-13 1.1088700e-14
 2.6000000e+06 1.8423950e-07 8.6328000e-10 2.7810700e-11 6.4016400e-13 1.1652500e-14
 2.7000000e+06 1.7301320e-07 8.5625900e-10 2.7838000e-11 6.4674200e-13 1.1597500e-14
 2.8000000e+06 1.6225750e-07 8.4616800e-10 2.7760900e-11 6.5083900e-13 1.2056000e-14
 2.9000000e+06 1.5194910e-07 8.3275600e-10 2.7567000e-11 6.5185500e-13 1.2318900e-14
 3.0000000e+06 1.4206830e-07 8.1579800e-10 2.7248200e-11 6.5057100e-13 1.2151000e-14
 3.1000000e+06 1.3259960e-07 7.9509900e-10 2.6793400e-11 6.4467800e-13 1.2419300e-14
 3.2000000e+06 1.2353050e-07 7.7049600e-10 2.6193600e-11 6.3598800e-13 1.1832400e-14
 3.3000000e+06 1.1485110e-07 7.4185300e-10 2.5441800e-11 6.2301200e-13 1.2167300e-14
 3.4000000e+06 1.0655290e-07 7.0907400e-10 2.4529100e-11 6.0590300e-13 1.1944200e-14
 3.5000000e+06 9.8627690e-08 6.7208600e-10 2.3451500e-11 5.8438600e-13 1.0962500e-14
 3.6000000e+06 9.1057700e-08 6.3083900e-10 2.2201200e-11 5.5811600e-13 1.0734300e-14
 3.7000000e+06 8.3854160e-08 5.8530300e-10 2.0773800e-11 5.2635200e-13 1.0671200e-14
 3.8000000e+06 6.8552490e-08 5.8553800e-10 2.0965500e-11 5.3653000e-13 1.0692500e-14
 3.9000000e+06 3.9618480e-08 3.9409800e-10 1.4202500e-11 3.6565300e-13 7.3876600e-15
 4.0000000e+06 6.4796630e-08 5.3529500e-10 1.9475900e-11 5.0595200e-13 1.0495900e-14
 4.1000000e+06 9.5114110e-08 3.6103000e-10 1.3256900e-11 3.4793100e-13 7.2209800e-15
 4.2000000e+06 2.1923110e-08 1.9903000e-10 7.3541400e-12 1.9418300e-13 3.9435000e-15
 4.3000000e+06 3.6600300e-08 3.6092700e-10 1.3467800e-11 3.5912000e-13 7.4725200e-15
 4.4000000e+06 2.6622240e-08 6.5554900e-11 2.4745000e-12 6.6635000e-14 1.2753900e-15
 4.5000000e+06 3.3092820e-09 8.8493100e-11 3.3452300e-12 9.0341100e-14 1.8623900e-15
 4.6000000e+06 3.0890950e-08 -5.582500e-25 -1.828660e-24 -1.299190e-24 -1.676280e-24
 4.7000000e+06 1.5211110e-08 -3.671530e-25 1.5007600e-25 -4.150270e-25 2.6263400e-25
 4.8000000e+06 5.8897110e-08 -4.335210e-24 -6.392020e-24 3.2616500e-24 8.8616700e-24
 4.9000000e+06 2.2490600e-12 8.2044500e-30 2.2189800e-29 -7.894500e-30 7.2116800e-29
 5.0000000e+06 1.7736500e-12 -3.122570e-28 1.7499200e-29 -1.136700e-29 1.9686700e-28
 5.1000000e+06 7.2326600e-09 -8.370150e-25 2.1407700e-25 1.1205100e-25 -1.070390e-25
 5.2000000e+06 5.6649800e-08 -9.973380e-24 5.5892000e-25 -3.630600e-25 6.2878600e-24
 5.3000000e+06 8.3761600e-13 1.9158800e-29 8.2641200e-29 -1.094750e-29 1.6528200e-29
 5.4000000e+06 6.4160600e-13 -4.263350e-29 -6.963260e-29 3.3294400e-29 1.0919700e-28
 5.5000000e+06 3.1213840e-08 -2.497540e-24 9.2389000e-25 4.4078600e-25 -1.924770e-24
 5.6000000e+06 3.6433800e-13 -2.420960e-29 -3.954110e-29 1.8906300e-29 6.2007700e-29
 5.7000000e+06 2.6922700e-13 1.1621500e-29 -3.187510e-29 -1.005540e-30 -1.660160e-29
 5.8000000e+06 1.7060010e-08 -3.083020e-25 -1.009910e-24 -7.174990e-25 -9.257500e-25
 5.9000000e+06 1.4041200e-13 6.0610600e-30 -1.662410e-29 -5.244300e-31 -8.658370e-30
 6.0000000e+06 9.8922500e-14 2.7893200e-30 -3.903970e-30 -2.055520e-30 1.0003900e-29
 6.1000000e+06 6.8666600e-14 -1.362220e-29 -8.807260e-30 1.3760800e-30 6.6054400e-30
 6.2000000e+06 4.7085900e-14 1.7176700e-31 4.6456100e-31 -1.652780e-31 1.5098200e-30
 6.3000000e+06 3.1946800e-14 3.7717400e-31 -2.521560e-30 2.3809400e-31 -7.170690e-30
 6.4000000e+06 1.8220290e-08 -2.108580e-24 5.3929700e-25 2.8227700e-25 -2.696490e-25
 6.5000000e+06 3.0289920e-09 -2.338350e-25 -5.976950e-26 7.6505800e-26 2.7643400e-25
