#    [ 4640 :  6 :   5 ]    46 - 107
# Energy and angle distribution
#           NK           388  number of subsections

#   Subsection             0
#          ZAP             1
#          LIP             0  product modifier
#          LAW             1  distribution law
#           NP            78  yield energy points
#   Energy[eV]  CrossSec [b]  Multiplicity  CrossSec x M
 1.0000000e+06 1.2132520e-05 0.0000000e+00 0.0000000e+00
 6.5364290e+06 3.6505290e-03 0.0000000e+00 0.0000000e+00
 7.0000000e+06 4.2154830e-03 5.3833780e-01 2.2693538e-03
 7.5000000e+06 5.3360370e-03 9.4382980e-01 5.0363107e-03
 8.0000000e+06 6.8908920e-03 9.8603950e-01 6.7946917e-03
 8.5000000e+06 8.8343150e-03 9.8761060e-01 8.7248631e-03
 9.0000000e+06 1.1249690e-02 9.9001750e-01 1.1137390e-02
 9.5000000e+06 1.4423690e-02 9.9031180e-01 1.4283950e-02
 1.0000000e+07 1.8801020e-02 9.9083560e-01 1.8628720e-02
 1.0500000e+07 2.4942680e-02 9.9173750e-01 2.4736591e-02
 1.1000000e+07 3.3562640e-02 9.9284080e-01 3.3322358e-02
 1.1500000e+07 4.5552810e-02 9.9401090e-01 4.5279990e-02
 1.2000000e+07 6.1831470e-02 9.9515750e-01 6.1532051e-02
 1.2500000e+07 8.2749360e-02 9.9623760e-01 8.2438024e-02
 1.3000000e+07 1.0692860e-01 9.9718690e-01 1.0662780e-01
 1.3500000e+07 1.3068000e-01 9.9792700e-01 1.3040910e-01
 1.4000000e+07 1.5042370e-01 9.9844710e-01 1.5019011e-01
 1.4500000e+07 1.6616760e-01 9.9878560e-01 1.6596581e-01
 1.5000000e+07 1.7987900e-01 9.9897430e-01 1.7969450e-01
 1.5500000e+07 1.9108220e-01 9.9901040e-01 1.9089311e-01
 1.6000000e+07 1.9646050e-01 9.9892500e-01 1.9624930e-01
 1.6500000e+07 1.9336100e-01 1.0667910e+00 2.0627577e-01
 1.7000000e+07 1.8244480e-01 1.2507930e+00 2.2820068e-01
 1.7500000e+07 1.6684330e-01 1.4277950e+00 2.3821803e-01
 1.8000000e+07 1.4983390e-01 1.5610630e+00 2.3390016e-01
 1.8500000e+07 1.3356420e-01 1.6605390e+00 2.2178856e-01
 1.9000000e+07 1.1902670e-01 1.7231970e+00 2.0510645e-01
 1.9500000e+07 1.0647930e-01 1.7700270e+00 1.8847124e-01
 2.0000000e+07 9.5820880e-02 1.7981380e+00 1.7229917e-01
 2.1000000e+07 7.9031500e-02 1.8298540e+00 1.4461611e-01
 2.2000000e+07 6.6916280e-02 1.8459320e+00 1.2352290e-01
 2.3000000e+07 5.7974790e-02 1.8523970e+00 1.0739233e-01
 2.4000000e+07 5.1204800e-02 1.8613140e+00 9.5308211e-02
 2.5000000e+07 4.5953540e-02 1.9167590e+00 8.8081861e-02
 2.6000000e+07 4.1791680e-02 2.0257480e+00 8.4659412e-02
 2.7000000e+07 3.8430770e-02 2.1445330e+00 8.2416054e-02
 2.8000000e+07 3.5672240e-02 2.2427480e+00 8.0003845e-02
 2.9000000e+07 3.3376020e-02 2.3209520e+00 7.7464140e-02
 3.0000000e+07 3.1441000e-02 2.3729430e+00 7.4607701e-02
 3.2000000e+07 2.8374800e-02 2.4304830e+00 6.8964469e-02
 3.4000000e+07 2.6068910e-02 2.4575550e+00 6.4065780e-02
 3.6000000e+07 2.4280750e-02 2.4928910e+00 6.0529263e-02
 3.8000000e+07 2.2856860e-02 2.5890240e+00 5.9176959e-02
 4.0000000e+07 2.1696050e-02 2.7021140e+00 5.8625200e-02
 4.2000000e+07 2.0729340e-02 2.7964150e+00 5.7967837e-02
 4.4000000e+07 1.9908520e-02 2.8648810e+00 5.7035541e-02
 4.6000000e+07 1.9199120e-02 2.9230010e+00 5.6119047e-02
 4.8000000e+07 1.8576080e-02 2.9879120e+00 5.5503692e-02
 5.0000000e+07 1.8020860e-02 3.0551610e+00 5.5056629e-02
 5.2000000e+07 1.7519550e-02 3.1249200e+00 5.4747192e-02
 5.4000000e+07 1.7061590e-02 3.1891070e+00 5.4411236e-02
 5.6000000e+07 1.6638870e-02 3.2487670e+00 5.4055812e-02
 5.8000000e+07 1.6245050e-02 3.2999900e+00 5.3608503e-02
 6.0000000e+07 1.5875180e-02 3.3520810e+00 5.3214889e-02
 6.2000000e+07 1.5525320e-02 3.4027880e+00 5.2829373e-02
 6.4000000e+07 1.5192330e-02 3.4625850e+00 5.2604734e-02
 6.6000000e+07 1.4873690e-02 3.5206980e+00 5.2365771e-02
 6.8000000e+07 1.4567340e-02 3.5739460e+00 5.2062887e-02
 7.0000000e+07 1.4271630e-02 3.6294420e+00 5.1798053e-02
 7.2000000e+07 1.3985170e-02 3.6788150e+00 5.1448853e-02
 7.4000000e+07 1.3706880e-02 3.7287680e+00 5.1109776e-02
 7.6000000e+07 1.3435820e-02 3.7769210e+00 5.0746031e-02
 7.8000000e+07 1.3171250e-02 3.8288980e+00 5.0431373e-02
 8.0000000e+07 1.2912560e-02 3.8746170e+00 5.0031224e-02
 8.5000000e+07 1.2288510e-02 3.9917520e+00 4.9052684e-02
 9.0000000e+07 1.1692850e-02 4.1004890e+00 4.7946403e-02
 9.5000000e+07 1.1122620e-02 4.2203060e+00 4.6940860e-02
 1.0000000e+08 1.0576590e-02 4.3290270e+00 4.5786344e-02
 1.1000000e+08 9.5576860e-03 4.5431520e+00 4.3422020e-02
 1.2000000e+08 8.6444020e-03 4.7563460e+00 4.1115767e-02
 1.3000000e+08 7.8522480e-03 4.9707970e+00 3.9031931e-02
 1.4000000e+08 7.2004230e-03 5.1682760e+00 3.7213773e-02
 1.5000000e+08 6.5108500e-03 5.3697860e+00 3.4961871e-02
 1.6000000e+08 5.9220260e-03 5.6074510e+00 3.3207471e-02
 1.7000000e+08 5.4148530e-03 5.7946820e+00 3.1377351e-02
 1.8000000e+08 4.9745760e-03 5.9780330e+00 2.9738179e-02
 1.9000000e+08 4.5896550e-03 6.1509020e+00 2.8230518e-02
 2.0000000e+08 4.2509540e-03 6.3329380e+00 2.6921028e-02


#           NR             1
#           NE            32
#         LANG             1  1: Legendre, 2:KM systematics, 11-15: tabulated
#          LEP             2  secondary energy interpolation
#           E1 1.0000000e+06  incident energy
#          NEP             3  number of secondary energy points
#           ND             0  number of discrete lines
#           NA             0  number of angular parameters
# Energy       Spectrum
 0.0000000e+00 0.0000000e+00
 5.0000000e-01 2.0000000e+00
 1.0000000e+00 0.0000000e+00


#           E1 6.5364290e+06  incident energy
#          NEP             3  number of secondary energy points
#           ND             0  number of discrete lines
#           NA             0  number of angular parameters
# Energy       Spectrum
 0.0000000e+00 0.0000000e+00
 5.0000000e-01 2.0000000e+00
 1.0000000e+00 0.0000000e+00


#           E1 8.0000000e+06  incident energy
#          NEP            17  number of secondary energy points
#           ND             0  number of discrete lines
#           NA             0  number of angular parameters
# Energy       Spectrum
 0.0000000e+00 0.0000000e+00
 2.5000000e+04 2.4414000e-10
 1.0000000e+05 8.5567800e-10
 2.0000000e+05 3.4631860e-06
 3.0000000e+05 2.4599970e-06
 4.0000000e+05 1.0321920e-09
 5.0000000e+05 9.0904900e-10
 6.0000000e+05 3.7402300e-10
 7.0000000e+05 1.9965200e-10
 8.0000000e+05 1.0836900e-10
 9.0000000e+05 6.8871800e-11
 1.0000000e+06 3.6384750e-06
 1.1000000e+06 2.6511400e-11
 1.2000000e+06 1.1907700e-11
 1.3000000e+06 2.9800500e-12
 1.4000000e+06 3.2876600e-13
 1.5000000e+06 8.6947300e-07


#           E1 1.0000000e+07  incident energy
#          NEP            37  number of secondary energy points
#           ND             0  number of discrete lines
#           NA             3  number of angular parameters
# Energy       PL( 0)        PL( 1)        PL( 2)        PL( 3)       
 0.0000000e+00 0.0000000e+00 0.0000000e+00 0.0000000e+00 0.0000000e+00
 2.5000000e+04 8.1453990e-08 -3.625500e-24 6.4291600e-24 -4.845150e-25
 1.0000000e+05 3.1351200e-07 8.0010500e-11 1.6170600e-12 2.2844000e-14
 2.0000000e+05 4.9880600e-07 1.3452500e-10 2.7513800e-12 3.9858600e-14
 3.0000000e+05 5.7142350e-07 1.6125300e-10 3.3396800e-12 4.8042500e-14
 4.0000000e+05 5.8591400e-07 1.7165500e-10 3.5998100e-12 5.4437400e-14
 5.0000000e+05 5.7295630e-07 1.7263500e-10 3.6593000e-12 5.4198700e-14
 6.0000000e+05 5.4678070e-07 1.6769700e-10 3.5969000e-12 5.5092500e-14
 7.0000000e+05 5.1642360e-07 1.5846400e-10 3.4352000e-12 5.1818700e-14
 8.0000000e+05 2.4571650e-07 1.4547500e-10 3.1898700e-12 5.0073600e-14
 9.0000000e+05 3.3455930e-08 4.8638900e-11 1.0764200e-12 1.6977600e-14
 1.0000000e+06 8.3360930e-07 1.2417000e-10 2.7766300e-12 4.4871200e-14
 1.1000000e+06 4.5451620e-07 7.2314000e-11 1.6356400e-12 2.7013200e-14
 1.2000000e+06 1.1855780e-06 7.8083700e-11 1.7839600e-12 3.1494700e-14
 1.3000000e+06 1.2069110e-09 -1.269070e-25 8.3353700e-26 -1.356250e-27
 1.4000000e+06 4.1901780e-07 2.6863300e-12 6.1513200e-14 -8.015860e-16
 1.5000000e+06 4.5891970e-07 -7.483920e-23 -7.244500e-23 3.3533500e-24
 1.6000000e+06 4.7430080e-07 -5.488950e-23 1.4038700e-23 7.3480700e-24
 1.7000000e+06 4.6613600e-10 -6.960530e-27 -1.379700e-26 2.4436200e-26
 1.8000000e+06 1.0626920e-07 -7.822100e-24 -1.153330e-23 5.8850600e-24
 1.9000000e+06 7.0319050e-07 -8.137820e-23 2.0813500e-23 1.0894100e-23
 2.0000000e+06 2.1493200e-10 -3.505050e-26 -3.392920e-26 1.5705200e-27
 2.1000000e+06 1.5497400e-10 -6.897860e-27 1.2232100e-26 -9.218360e-28
 2.2000000e+06 5.5441910e-07 -3.684010e-23 -6.017030e-23 2.8770000e-23
 2.3000000e+06 4.5888930e-07 -6.852320e-24 -1.358250e-23 2.4056300e-23
 2.4000000e+06 5.9655600e-11 -1.078070e-27 -3.531460e-27 -2.508960e-27
 2.5000000e+06 4.1151700e-11 -9.932860e-28 4.0601300e-28 -1.122800e-27
 2.6000000e+06 2.6218700e-11 -3.326240e-28 -3.104160e-27 -2.443480e-29
 2.7000000e+06 1.6321200e-11 -5.426410e-28 -1.610290e-28 3.6626400e-28
 2.8000000e+06 9.9971700e-12 -7.761520e-28 -2.959040e-28 1.4132100e-28
 2.9000000e+06 5.9222700e-12 -7.117280e-29 0.0000000e+00 2.8407200e-29
 3.0000000e+06 4.0859220e-07 -7.383930e-24 -2.418760e-23 -1.718430e-23
 3.1000000e+06 1.7143600e-12 2.8087700e-29 5.0743000e-29 5.0128100e-29
 3.2000000e+06 7.1876200e-13 -4.692810e-29 7.0914800e-29 -1.436240e-29
 3.3000000e+06 2.1146400e-13 2.4966100e-30 -1.669080e-29 1.5760000e-30
 3.4000000e+06 2.6229000e-14 -3.916620e-31 -7.763450e-31 1.3750000e-30
 3.5000000e+06 1.0793200e-07 -4.804020e-24 8.5190600e-24 -6.420140e-25


#           E1 1.2000000e+07  incident energy
#          NEP            57  number of secondary energy points
#           ND             0  number of discrete lines
#           NA             3  number of angular parameters
# Energy       PL( 0)        PL( 1)        PL( 2)        PL( 3)       
 0.0000000e+00 0.0000000e+00 0.0000000e+00 0.0000000e+00 0.0000000e+00
 2.5000000e+04 8.3986240e-08 -4.029410e-24 8.2862800e-25 6.6536400e-25
 1.0000000e+05 3.2359010e-07 1.4004100e-10 3.1049500e-12 4.9282900e-14
 2.0000000e+05 5.1577240e-07 2.4523400e-10 5.4984700e-12 8.9225800e-14
 3.0000000e+05 5.9167440e-07 3.0822700e-10 6.9913100e-12 1.1163900e-13
 4.0000000e+05 6.0759780e-07 3.4685400e-10 7.9622000e-12 1.2851700e-13
 5.0000000e+05 5.9526420e-07 3.7252900e-10 8.6517100e-12 1.4380000e-13
 6.0000000e+05 5.6967250e-07 3.9157000e-10 9.1988800e-12 1.5518700e-13
 7.0000000e+05 5.3956840e-07 4.0733700e-10 9.6738900e-12 1.6586500e-13
 8.0000000e+05 5.0748970e-07 4.2153200e-10 1.0124300e-11 1.7139400e-13
 9.0000000e+05 4.7638820e-07 4.3486800e-10 1.0559500e-11 1.8460500e-13
 1.0000000e+06 4.4668080e-07 4.4747200e-10 1.0983600e-11 1.9259600e-13
 1.1000000e+06 4.1816080e-07 4.5910600e-10 1.1397500e-11 2.0250700e-13
 1.2000000e+06 3.9056000e-07 4.6932700e-10 1.1769700e-11 2.1149300e-13
 1.3000000e+06 3.6379360e-07 4.7769700e-10 1.2113400e-11 2.1594100e-13
 1.4000000e+06 3.3793320e-07 4.8374500e-10 1.2396800e-11 2.3016500e-13
 1.5000000e+06 3.1291590e-07 4.8711100e-10 1.2608500e-11 2.3001200e-13
 1.6000000e+06 2.8878930e-07 4.8750100e-10 1.2750700e-11 2.3913100e-13
 1.7000000e+06 2.6563270e-07 4.8476000e-10 1.2812100e-11 2.4146900e-13
 1.8000000e+06 2.4356000e-07 4.7880800e-10 1.2783000e-11 2.4703600e-13
 1.9000000e+06 2.2263120e-07 4.6963000e-10 1.2662900e-11 2.4367600e-13
 2.0000000e+06 2.0289140e-07 4.5726000e-10 1.2452500e-11 2.4211900e-13
 2.1000000e+06 1.8438690e-07 4.4176400e-10 1.2150000e-11 2.3891500e-13
 2.2000000e+06 1.6715830e-07 4.2321400e-10 1.1754900e-11 2.3321800e-13
 2.3000000e+06 1.5119020e-07 4.0168000e-10 1.1264900e-11 2.2571000e-13
 2.4000000e+06 1.3643720e-07 3.7721000e-10 1.0681000e-11 2.1570300e-13
 2.5000000e+06 1.2285300e-07 3.4983200e-10 1.0000900e-11 2.0435400e-13
 2.6000000e+06 1.1037330e-07 3.1954500e-10 9.2216500e-12 1.8988800e-13
 2.7000000e+06 9.8938920e-08 2.8631200e-10 8.3407100e-12 1.7353100e-13
 2.8000000e+06 4.6951100e-08 2.5006000e-10 7.3530900e-12 1.5456800e-13
 2.9000000e+06 1.1562410e-08 8.2719300e-11 2.4516200e-12 5.1916700e-14
 3.0000000e+06 1.3206760e-07 2.0128500e-10 6.0221300e-12 1.2795600e-13
 3.1000000e+06 7.5245080e-08 1.1190200e-10 3.3784500e-12 7.2730400e-14
 3.2000000e+06 1.4571980e-07 1.1537200e-10 3.5185900e-12 7.6577300e-14
 3.3000000e+06 1.1287100e-10 1.2722200e-27 -6.681690e-27 -2.590530e-27
 3.4000000e+06 5.8366200e-08 3.7682000e-12 1.1609700e-13 2.6675900e-15
 3.5000000e+06 5.8478680e-08 -3.818080e-24 5.7696500e-24 -1.168530e-24
 3.6000000e+06 5.7429290e-08 1.0003300e-24 -2.833060e-24 -2.250020e-24
 3.7000000e+06 4.3829900e-11 -7.920780e-28 -2.594620e-27 -1.843370e-27
 3.8000000e+06 1.4179770e-08 -2.813010e-24 -1.818710e-24 2.8416400e-25
 3.9000000e+06 6.5648490e-08 -5.096760e-24 -1.943110e-24 9.2801200e-25
 4.0000000e+06 1.9730700e-11 8.5170000e-28 -2.336020e-27 -7.369290e-29
 4.1000000e+06 1.4791400e-11 6.3849000e-28 -1.751230e-27 -5.524500e-29
 4.2000000e+06 6.0700970e-08 -1.191830e-24 -2.994450e-24 -1.807970e-24
 4.3000000e+06 4.1365910e-08 -3.309850e-24 1.2243800e-24 5.8414900e-25
 4.4000000e+06 5.5427600e-12 1.2677900e-28 5.4686200e-28 -7.244270e-29
 4.5000000e+06 3.7631100e-12 1.6243900e-28 -4.455320e-28 -1.405490e-29
 4.6000000e+06 2.4601900e-12 -4.445970e-29 -1.456370e-28 -1.034690e-28
 4.7000000e+06 1.5443500e-12 2.6900400e-29 -7.618490e-29 -6.050630e-29
 4.8000000e+06 9.3103700e-13 -4.466840e-29 9.1858300e-30 7.3759600e-30
 4.9000000e+06 5.4103700e-13 -2.811350e-29 5.3380000e-30 -1.154040e-29
 5.0000000e+06 3.4172770e-08 1.4751100e-24 -4.045880e-24 -1.276330e-25
 5.1000000e+06 1.4989500e-13 1.6895200e-30 -8.873390e-30 -3.440270e-30
 5.2000000e+06 6.1476300e-14 -3.194450e-30 6.0654000e-31 -1.311300e-30
 5.3000000e+06 1.7686600e-14 2.8977300e-31 5.2350200e-31 5.1715800e-31
 5.4000000e+06 2.1440500e-15 -1.028650e-31 2.1153700e-32 1.6985800e-32
 5.5000000e+06 8.9136010e-09 -1.768290e-24 -1.143270e-24 1.7862900e-25


#           E1 1.4000000e+07  incident energy
#          NEP            77  number of secondary energy points
#           ND             0  number of discrete lines
#           NA             4  number of angular parameters
# Energy       PL( 0)        PL( 1)        PL( 2)        PL( 3)        PL( 4)       
 0.0000000e+00 0.0000000e+00 0.0000000e+00 0.0000000e+00 0.0000000e+00 0.0000000e+00
 2.5000000e+04 7.9085600e-08 -1.568910e-23 -1.014360e-23 1.5848800e-24 7.6077100e-24
 1.0000000e+05 3.1017310e-07 1.8508800e-10 4.4290400e-12 7.4396800e-14 1.8416500e-15
 2.0000000e+05 4.9536100e-07 3.2560800e-10 7.8850500e-12 1.3601200e-13 4.1770500e-16
 3.0000000e+05 5.6870490e-07 4.1139500e-10 1.0080400e-11 1.7601200e-13 2.2052200e-15
 4.0000000e+05 5.8445940e-07 4.6572000e-10 1.1546500e-11 2.0378500e-13 2.1181800e-15
 5.0000000e+05 5.7308780e-07 5.0358500e-10 1.2629000e-11 2.2566200e-13 2.4925800e-15
 6.0000000e+05 5.4947040e-07 5.3334600e-10 1.3528300e-11 2.4554900e-13 3.0981100e-15
 7.0000000e+05 5.2132590e-07 5.5954700e-10 1.4353200e-11 2.6432800e-13 3.4351200e-15
 8.0000000e+05 4.9166380e-07 5.8455600e-10 1.5162500e-11 2.8145700e-13 3.8471800e-15
 9.0000000e+05 4.6264600e-07 6.0945200e-10 1.5981400e-11 2.9766600e-13 5.5888400e-15
 1.0000000e+06 4.3476190e-07 6.3450800e-10 1.6824000e-11 3.1939500e-13 3.0243100e-15
 1.1000000e+06 4.0794050e-07 6.5952900e-10 1.7677400e-11 3.3662800e-13 4.0640600e-15
 1.2000000e+06 3.8199370e-07 6.8405400e-10 1.8532100e-11 3.6054800e-13 5.5935700e-15
 1.3000000e+06 3.5682730e-07 7.0752500e-10 1.9372300e-11 3.7873700e-13 5.7629600e-15
 1.4000000e+06 3.3244330e-07 7.2938000e-10 2.0180700e-11 3.9800600e-13 6.3522500e-15
 1.5000000e+06 3.0881110e-07 7.4916200e-10 2.0945600e-11 4.1843800e-13 7.0663200e-15
 1.6000000e+06 2.8598540e-07 7.6652200e-10 2.1653500e-11 4.3670600e-13 6.2323000e-15
 1.7000000e+06 2.6405090e-07 7.8125300e-10 2.2299500e-11 4.5433000e-13 4.9683600e-15
 1.8000000e+06 2.4311590e-07 7.9326100e-10 2.2869900e-11 4.7117300e-13 7.8098400e-15
 1.9000000e+06 2.2325480e-07 8.0255800e-10 2.3372500e-11 4.8587100e-13 7.2239500e-15
 2.0000000e+06 2.0452660e-07 8.0923400e-10 2.3800200e-11 4.9806100e-13 8.3876000e-15
 2.1000000e+06 1.8698040e-07 8.1342100e-10 2.4162500e-11 5.1129100e-13 9.7268600e-15
 2.2000000e+06 1.7065370e-07 8.1529500e-10 2.4455700e-11 5.2358100e-13 8.8038000e-15
 2.3000000e+06 1.5554050e-07 8.1503500e-10 2.4686500e-11 5.3309100e-13 9.4839000e-15
 2.4000000e+06 1.4160760e-07 8.1281900e-10 2.4859300e-11 5.4280300e-13 8.4670100e-15
 2.5000000e+06 1.2881530e-07 8.0882500e-10 2.4972500e-11 5.5083000e-13 8.3621300e-15
 2.6000000e+06 1.1710770e-07 8.0320500e-10 2.5034400e-11 5.5781800e-13 9.3208100e-15
 2.7000000e+06 1.0642960e-07 7.9610200e-10 2.5048900e-11 5.6320200e-13 9.7640800e-15
 2.8000000e+06 9.6713590e-08 7.8762100e-10 2.5015300e-11 5.6723200e-13 9.0090500e-15
 2.9000000e+06 8.7888640e-08 7.7785300e-10 2.4932000e-11 5.7056600e-13 9.8974000e-15
 3.0000000e+06 7.9884270e-08 7.6685800e-10 2.4806600e-11 5.7331900e-13 1.0324900e-14
 3.1000000e+06 7.2631370e-08 7.5467500e-10 2.4635600e-11 5.7459000e-13 1.0417300e-14
 3.2000000e+06 6.6062820e-08 7.4131300e-10 2.4419100e-11 5.7482900e-13 1.0511300e-14
 3.3000000e+06 6.0114480e-08 7.2675900e-10 2.4155400e-11 5.7352200e-13 1.0492900e-14
 3.4000000e+06 5.4725740e-08 7.1097400e-10 2.3842100e-11 5.7123500e-13 1.0600400e-14
 3.5000000e+06 4.9839880e-08 6.9389900e-10 2.3476000e-11 5.6737700e-13 1.0610500e-14
 3.6000000e+06 4.5404190e-08 6.7545300e-10 2.3053300e-11 5.6252500e-13 1.0609700e-14
 3.7000000e+06 4.1370020e-08 6.5553500e-10 2.2569100e-11 5.5528600e-13 1.0661000e-14
 3.8000000e+06 3.7692720e-08 6.3402900e-10 2.2018500e-11 5.4633200e-13 1.0763100e-14
 3.9000000e+06 3.4331470e-08 6.1080400e-10 2.1395000e-11 5.3545600e-13 1.0290800e-14
 4.0000000e+06 3.1249160e-08 5.8571800e-10 2.0692100e-11 5.2230600e-13 1.0114600e-14
 4.1000000e+06 2.8412090e-08 5.5862000e-10 1.9902700e-11 5.0675500e-13 1.0042500e-14
 4.2000000e+06 2.5789860e-08 5.2935500e-10 1.9019100e-11 4.8829500e-13 9.7290800e-15
 4.3000000e+06 2.3355040e-08 4.9776400e-10 1.8034600e-11 4.6693200e-13 9.2691800e-15
 4.4000000e+06 2.1082970e-08 4.6368600e-10 1.6939900e-11 4.4218000e-13 9.0437300e-15
 4.5000000e+06 1.8951560e-08 4.2696600e-10 1.5727900e-11 4.1407400e-13 8.2477400e-15
 4.6000000e+06 1.6941000e-08 3.8745200e-10 1.4389700e-11 3.8180800e-13 7.8887400e-15
 4.7000000e+06 1.5033610e-08 3.4499600e-10 1.2917700e-11 3.4556300e-13 7.0995700e-15
 4.8000000e+06 9.0014340e-09 2.9945800e-10 1.1303900e-11 3.0494700e-13 6.3303800e-15
 4.9000000e+06 3.1465090e-09 9.8880100e-11 3.7581100e-12 1.0208400e-13 2.1601600e-15
 5.0000000e+06 1.5447280e-08 2.3902000e-10 9.1589500e-12 2.5082300e-13 5.3237600e-15
 5.1000000e+06 9.5690680e-09 1.3196000e-10 5.0967000e-12 1.4070000e-13 3.0134700e-15
 5.2000000e+06 1.3757520e-08 1.3499300e-10 5.2602500e-12 1.4650100e-13 3.1778700e-15
 5.3000000e+06 7.6882200e-12 -1.353540e-27 7.5853800e-29 -4.927260e-29 8.5335500e-28
 5.4000000e+06 5.5936290e-09 4.3630700e-12 1.7245100e-13 4.8744900e-15 1.0125600e-16
 5.5000000e+06 5.2489100e-09 -4.199860e-25 1.5536100e-25 7.4122500e-26 -3.236690e-25
 5.6000000e+06 5.2066950e-09 -7.774850e-26 -1.541120e-25 2.7295100e-25 5.9076100e-25
 5.7000000e+06 2.8178500e-12 -5.532700e-29 -1.390080e-28 -8.392900e-29 -2.154620e-28
 5.8000000e+06 1.2342000e-09 1.3911200e-26 -7.306150e-26 -2.832640e-26 -6.697300e-26
 5.9000000e+06 4.7611050e-09 2.0551900e-25 -5.636900e-25 -1.778240e-26 -2.935890e-25
 6.0000000e+06 1.1984200e-12 1.9634600e-29 3.5471700e-29 3.5041900e-29 1.2119500e-28
 6.1000000e+06 8.7898200e-13 -1.312530e-29 -2.601670e-29 4.6078900e-29 9.9730900e-29
 6.2000000e+06 5.3597020e-09 -8.740440e-25 -8.460820e-25 3.9163700e-26 4.2304100e-25
 6.3000000e+06 2.9503940e-09 -1.415510e-25 2.9109300e-26 2.3373900e-26 -2.983700e-25
 6.4000000e+06 3.0707700e-13 7.0237600e-30 3.0296900e-29 -4.013430e-30 6.0593800e-30
 6.5000000e+06 2.0368000e-13 -3.999160e-30 -1.004780e-29 -6.066580e-30 -1.557410e-29
 6.6000000e+06 1.3013100e-13 -8.496280e-30 1.2839000e-29 -2.600300e-30 -9.308310e-30
 6.7000000e+06 7.9854800e-14 -1.192420e-30 -2.363600e-30 4.1862300e-30 9.0604700e-30
 6.8000000e+06 4.7068300e-14 -5.447080e-30 1.3931600e-30 7.2920300e-31 -6.965810e-31
