#    [ 5025 :  6 :   5 ]    50 - 112
# Energy and angle distribution
#           NK           371  number of subsections

#   Subsection             0
#          ZAP             1
#          LIP             0  product modifier
#          LAW             1  distribution law
#           NP            70  yield energy points
#   Energy[eV]  CrossSec [b]  Multiplicity  CrossSec x M
 1.0000000e+06 1.7648650e-05 0.0000000e+00 0.0000000e+00
 1.0787790e+07 3.7593065e-02 0.0000000e+00 0.0000000e+00
 1.1000000e+07 4.1535600e-02 4.2821750e-01 1.7786271e-02
 1.1500000e+07 5.3890460e-02 8.9780830e-01 4.8383302e-02
 1.2000000e+07 7.0220370e-02 9.2623120e-01 6.5040298e-02
 1.2500000e+07 9.1558710e-02 9.2934650e-01 8.5089767e-02
 1.3000000e+07 1.1887130e-01 9.2064270e-01 1.0943799e-01
 1.3500000e+07 1.5250930e-01 9.1436000e-01 1.3944840e-01
 1.4000000e+07 1.9100730e-01 9.1291330e-01 1.7437310e-01
 1.4500000e+07 2.2952790e-01 9.1533190e-01 2.1009421e-01
 1.5000000e+07 2.5979640e-01 9.2030300e-01 2.3909141e-01
 1.5500000e+07 2.7373400e-01 9.2695130e-01 2.5373809e-01
 1.6000000e+07 2.6888640e-01 9.3413240e-01 2.5117550e-01
 1.6500000e+07 2.4967260e-01 9.4128070e-01 2.3501200e-01
 1.7000000e+07 2.2334460e-01 9.4644290e-01 2.1138291e-01
 1.7500000e+07 1.9580690e-01 9.5032860e-01 1.8608090e-01
 1.8000000e+07 1.7033170e-01 9.5291250e-01 1.6231121e-01
 1.8500000e+07 1.4815700e-01 9.5428030e-01 1.4138331e-01
 1.9000000e+07 1.2941130e-01 9.5433550e-01 1.2350180e-01
 1.9500000e+07 1.1375300e-01 1.0433630e+00 1.1868567e-01
 2.0000000e+07 1.0070570e-01 1.1731430e+00 1.1814219e-01
 2.1000000e+07 8.0461520e-02 1.3942270e+00 1.1218162e-01
 2.2000000e+07 6.5949370e-02 1.5156680e+00 9.9957350e-02
 2.3000000e+07 5.5231330e-02 1.5919860e+00 8.7927504e-02
 2.4000000e+07 4.7083720e-02 1.6384000e+00 7.7141967e-02
 2.5000000e+07 4.0729030e-02 1.6611070e+00 6.7655277e-02
 2.6000000e+07 3.5662590e-02 1.6697350e+00 5.9547075e-02
 2.7000000e+07 3.1548320e-02 1.6677700e+00 5.2615342e-02
 2.8000000e+07 2.8156520e-02 1.6596700e+00 4.6730532e-02
 2.9000000e+07 2.5326150e-02 1.6463360e+00 4.1695352e-02
 3.0000000e+07 2.2941470e-02 1.6303920e+00 3.7403589e-02
 3.2000000e+07 1.9189320e-02 1.6461600e+00 3.1588691e-02
 3.4000000e+07 1.6434650e-02 1.7815230e+00 2.9278707e-02
 3.6000000e+07 1.4391220e-02 1.9059540e+00 2.7429003e-02
 3.8000000e+07 1.2868950e-02 1.9813950e+00 2.5498473e-02
 4.0000000e+07 1.1734230e-02 2.0108790e+00 2.3596117e-02
 4.2000000e+07 1.0889560e-02 2.0272680e+00 2.2076057e-02
 4.4000000e+07 1.0262310e-02 2.0538490e+00 2.1077235e-02
 4.6000000e+07 9.7977820e-03 2.1029360e+00 2.0604108e-02
 4.8000000e+07 9.4546370e-03 2.1593470e+00 2.0415842e-02
 5.0000000e+07 9.2015560e-03 2.2127330e+00 2.0360587e-02
 5.2000000e+07 9.0148200e-03 2.2555350e+00 2.0333242e-02
 5.4000000e+07 8.8764660e-03 2.2858690e+00 2.0290438e-02
 5.6000000e+07 8.7728950e-03 2.3153020e+00 2.0311901e-02
 5.8000000e+07 8.6938220e-03 2.3510110e+00 2.0439271e-02
 6.0000000e+07 8.6314760e-03 2.3941840e+00 2.0665342e-02
 6.2000000e+07 8.5799970e-03 2.4381990e+00 2.0919740e-02
 6.4000000e+07 8.5349830e-03 2.4795710e+00 2.1163096e-02
 6.6000000e+07 8.4931400e-03 2.5218950e+00 2.1418807e-02
 6.8000000e+07 8.4520260e-03 2.5578680e+00 2.1619167e-02
 7.0000000e+07 8.4098510e-03 2.5932620e+00 2.1808947e-02
 7.2000000e+07 8.3653250e-03 2.6296530e+00 2.1997902e-02
 7.4000000e+07 8.3175450e-03 2.6682980e+00 2.2193689e-02
 7.6000000e+07 8.2659060e-03 2.7089720e+00 2.2392108e-02
 7.8000000e+07 8.2100350e-03 2.7482000e+00 2.2562818e-02
 8.0000000e+07 8.1497360e-03 2.7876530e+00 2.2718636e-02
 8.5000000e+07 7.9794880e-03 2.8858170e+00 2.3027342e-02
 9.0000000e+07 7.7830440e-03 2.9809990e+00 2.3201246e-02
 9.5000000e+07 7.5642440e-03 3.0763790e+00 2.3270481e-02
 1.0000000e+08 7.3280740e-03 3.1750800e+00 2.3267221e-02
 1.1000000e+08 6.8257690e-03 3.3599530e+00 2.2934263e-02
 1.2000000e+08 6.3210090e-03 3.5463780e+00 2.2416687e-02
 1.3000000e+08 5.8570290e-03 3.7269560e+00 2.1828889e-02
 1.4000000e+08 5.4739530e-03 3.9044180e+00 2.1372601e-02
 1.5000000e+08 4.9985790e-03 4.0709610e+00 2.0349020e-02
 1.6000000e+08 4.5881440e-03 4.2375810e+00 1.9442632e-02
 1.7000000e+08 4.2308610e-03 4.4021990e+00 1.8625092e-02
 1.8000000e+08 3.9175680e-03 4.5601120e+00 1.7864549e-02
 1.9000000e+08 3.6410430e-03 4.7159700e+00 1.7171050e-02
 2.0000000e+08 3.3955200e-03 4.8678080e+00 1.6528739e-02


#           NR             1
#           NE            30
#         LANG             1  1: Legendre, 2:KM systematics, 11-15: tabulated
#          LEP             2  secondary energy interpolation
#           E1 1.0000000e+06  incident energy
#          NEP             3  number of secondary energy points
#           ND             0  number of discrete lines
#           NA             1  number of angular parameters
# Energy       PL( 0)        PL( 1)       
 0.0000000e+00 0.0000000e+00 0.0000000e+00
 5.0000000e-01 2.0000000e+00 0.0000000e+00
 1.0000000e+00 0.0000000e+00 0.0000000e+00


#           E1 1.0787790e+07  incident energy
#          NEP             3  number of secondary energy points
#           ND             0  number of discrete lines
#           NA             1  number of angular parameters
# Energy       PL( 0)        PL( 1)       
 0.0000000e+00 0.0000000e+00 0.0000000e+00
 5.0000000e-01 2.0000000e+00 0.0000000e+00
 1.0000000e+00 0.0000000e+00 0.0000000e+00


#           E1 1.2000000e+07  incident energy
#          NEP            14  number of secondary energy points
#           ND             0  number of discrete lines
#           NA             1  number of angular parameters
# Energy       PL( 0)        PL( 1)       
 0.0000000e+00 0.0000000e+00 0.0000000e+00
 2.5000000e+04 1.9488770e-07 -1.012680e-23
 1.0000000e+05 7.7897530e-07 1.7895100e-12
 2.0000000e+05 1.0615630e-06 3.3687000e-13
 3.0000000e+05 9.8538500e-10 4.2535300e-26
 4.0000000e+05 7.0314800e-10 -1.394920e-25
 5.0000000e+05 1.0726650e-06 4.6302900e-23
 6.0000000e+05 2.3280150e-06 4.0550600e-23
 7.0000000e+05 1.3982000e-10 -6.708170e-27
 8.0000000e+05 6.1205400e-11 1.7258100e-27
 9.0000000e+05 2.1205400e-11 2.5035800e-28
 1.0000000e+06 2.7659200e-06 1.1939400e-22
 1.1000000e+06 1.7721980e-06 -1.368120e-22
 1.2000000e+06 4.3736060e-07 -2.855540e-23


#           E1 1.4000000e+07  incident energy
#          NEP            34  number of secondary energy points
#           ND             0  number of discrete lines
#           NA             3  number of angular parameters
# Energy       PL( 0)        PL( 1)        PL( 2)        PL( 3)       
 0.0000000e+00 0.0000000e+00 0.0000000e+00 0.0000000e+00 0.0000000e+00
 2.5000000e+04 6.5414090e-08 5.5347200e-25 5.8085200e-24 -4.051070e-25
 1.0000000e+05 2.5972330e-07 4.8272000e-11 1.3450800e-12 2.7914400e-14
 2.0000000e+05 4.1326360e-07 8.4842400e-11 2.3860700e-12 4.7364700e-14
 3.0000000e+05 4.8894680e-07 1.1016900e-10 3.1296200e-12 6.3755500e-14
 4.0000000e+05 5.2091940e-07 1.2817900e-10 3.6794400e-12 7.5681900e-14
 5.0000000e+05 5.2820080e-07 1.4163800e-10 4.1065000e-12 8.5801300e-14
 6.0000000e+05 5.2169950e-07 1.5211900e-10 4.4541500e-12 9.2929700e-14
 7.0000000e+05 5.0758690e-07 1.6042200e-10 4.7464700e-12 1.0098600e-13
 8.0000000e+05 4.8924450e-07 1.6687700e-10 4.9841400e-12 1.0706800e-13
 9.0000000e+05 4.6819740e-07 1.7150000e-10 5.1722400e-12 1.1168100e-13
 1.0000000e+06 4.4519760e-07 1.7416600e-10 5.3049600e-12 1.1487300e-13
 1.1000000e+06 4.2107060e-07 1.7465400e-10 5.3691000e-12 1.1725100e-13
 1.2000000e+06 3.9631050e-07 1.7273500e-10 5.3629200e-12 1.1954800e-13
 1.3000000e+06 3.7119520e-07 1.6817900e-10 5.2689000e-12 1.1789000e-13
 1.4000000e+06 3.4606670e-07 1.6079300e-10 5.0859500e-12 1.1506500e-13
 1.5000000e+06 3.2119700e-07 1.5041300e-10 4.8005000e-12 1.1010000e-13
 1.6000000e+06 2.9682340e-07 1.3690800e-10 4.4114800e-12 1.0202500e-13
 1.7000000e+06 1.3858380e-07 1.2017400e-10 3.9065600e-12 9.0677300e-14
 1.8000000e+06 3.0871110e-07 3.4280600e-11 1.1234500e-12 2.6563300e-14
 1.9000000e+06 3.4016330e-07 9.5656600e-11 3.1667400e-12 7.2692500e-14
 2.0000000e+06 4.9166430e-08 3.4367300e-11 1.1454900e-12 2.7330900e-14
 2.1000000e+06 5.7280680e-07 3.0469700e-11 1.0257800e-12 2.4884000e-14
 2.2000000e+06 3.7909980e-07 2.4879200e-12 8.3674400e-14 1.5285100e-15
 2.3000000e+06 2.2378500e-10 -3.649420e-26 -3.532670e-26 1.6352100e-27
 2.4000000e+06 1.4162000e-10 1.6720100e-27 -1.117810e-26 1.0554700e-27
 2.5000000e+06 2.8771850e-07 3.2429900e-24 -1.703220e-23 -6.603490e-24
 2.6000000e+06 3.8944020e-07 -4.506880e-23 1.1526900e-23 6.0333700e-24
 2.7000000e+06 2.3833600e-11 2.0165700e-28 2.1163300e-27 -1.476010e-28
 2.8000000e+06 1.0243500e-11 -6.688010e-28 1.0106500e-27 -2.046870e-28
 2.9000000e+06 3.4601800e-12 3.9001000e-29 -2.048340e-28 -7.941520e-29
 3.0000000e+06 3.2679820e-07 -1.086530e-23 -3.224270e-24 7.3336700e-24
 3.1000000e+06 3.2543070e-07 -6.389670e-24 -1.605390e-23 -9.692890e-24
 3.2000000e+06 1.7158650e-07 -1.120290e-23 1.6929100e-23 -3.428670e-24


#           E1 1.6000000e+07  incident energy
#          NEP            51  number of secondary energy points
#           ND             0  number of discrete lines
#           NA             4  number of angular parameters
# Energy       PL( 0)        PL( 1)        PL( 2)        PL( 3)        PL( 4)       
 0.0000000e+00 0.0000000e+00 0.0000000e+00 0.0000000e+00 0.0000000e+00 0.0000000e+00
 2.6666670e+04 7.9799980e-08 -1.566830e-24 -3.936630e-24 -2.376830e-24 -6.101770e-24
 1.0666670e+05 2.7796300e-07 7.3214100e-11 2.1795700e-12 4.5948700e-14 1.2879100e-15
 2.1333330e+05 4.3343510e-07 1.2974100e-10 3.9052500e-12 8.4035800e-14 1.1116700e-15
 3.2000000e+05 5.0650030e-07 1.7076900e-10 5.1900300e-12 1.1704400e-13 1.1389600e-14
 4.2666670e+05 5.3404070e-07 2.0251600e-10 6.2193700e-12 1.4711800e-13 7.9747300e-15
 5.3333330e+05 5.3729220e-07 2.2921300e-10 7.1366200e-12 1.6016400e-13 1.5936900e-15
 6.4000000e+05 5.2794780e-07 2.5324900e-10 7.9659900e-12 1.8502500e-13 4.8630300e-15
 7.4666670e+05 5.1156320e-07 2.7582600e-10 8.7603100e-12 1.9901700e-13 -2.476850e-15
 8.5333330e+05 4.9087520e-07 2.9749500e-10 9.5479900e-12 2.1775900e-13 4.5608400e-15
 9.6000000e+05 4.6759600e-07 3.1832100e-10 1.0322000e-11 2.3908900e-13 4.4669600e-15
 1.0666670e+06 4.4273410e-07 3.3816500e-10 1.1079700e-11 2.6034100e-13 5.1486800e-15
 1.1733330e+06 4.1672580e-07 3.5676800e-10 1.1806100e-11 2.7950800e-13 5.5894600e-15
 1.2800000e+06 3.9010890e-07 3.7385200e-10 1.2498800e-11 2.9822000e-13 5.1831700e-15
 1.3866670e+06 3.6329580e-07 3.8915600e-10 1.3139900e-11 3.1689800e-13 5.8507500e-15
 1.4933330e+06 3.3663400e-07 4.0246900e-10 1.3725200e-11 3.3391600e-13 6.8448400e-15
 1.6000000e+06 3.1047690e-07 4.1364500e-10 1.4245200e-11 3.5011500e-13 6.7098900e-15
 1.7066670e+06 2.8512120e-07 4.2259000e-10 1.4695400e-11 3.6510400e-13 7.1275700e-15
 1.8133330e+06 2.6082290e-07 4.2926200e-10 1.5073300e-11 3.7803000e-13 7.3130000e-15
 1.9200000e+06 2.3777170e-07 4.3366800e-10 1.5373400e-11 3.8931900e-13 6.9936600e-15
 2.0266670e+06 2.1609510e-07 4.3583400e-10 1.5598500e-11 3.9814900e-13 8.3672700e-15
 2.1333330e+06 1.9586710e-07 4.3581100e-10 1.5745600e-11 4.0602000e-13 7.9050200e-15
 2.2400000e+06 1.7711710e-07 4.3365100e-10 1.5814000e-11 4.1240200e-13 9.3207600e-15
 2.3466670e+06 1.5983770e-07 4.2941500e-10 1.5805700e-11 4.1634100e-13 8.9214600e-15
 2.4533330e+06 1.4399260e-07 4.2315200e-10 1.5720000e-11 4.1757500e-13 9.5045000e-15
 2.5600000e+06 1.2952380e-07 4.1488900e-10 1.5554700e-11 4.1636800e-13 8.4335500e-15
 2.6666670e+06 1.1635740e-07 4.0463700e-10 1.5309100e-11 4.1417200e-13 9.6531000e-15
 2.7733330e+06 1.0440950e-07 3.9238700e-10 1.4979900e-11 4.0874500e-13 7.8488400e-15
 2.8800000e+06 9.3589890e-08 3.7809800e-10 1.4564700e-11 4.0079600e-13 9.1769300e-15
 2.9866670e+06 8.3806460e-08 3.6170100e-10 1.4059300e-11 3.9021200e-13 8.0064700e-15
 3.0933330e+06 7.4967200e-08 3.4309900e-10 1.3452000e-11 3.7716400e-13 8.7096600e-15
 3.2000000e+06 6.6982570e-08 3.2216700e-10 1.2743500e-11 3.6049500e-13 7.6258100e-15
 3.3066670e+06 5.9767220e-08 2.9875200e-10 1.1920500e-11 3.4023600e-13 7.0582000e-15
 3.4133330e+06 5.3240540e-08 2.7268400e-10 1.0975000e-11 3.1551200e-13 7.3274100e-15
 3.5200000e+06 4.7327820e-08 2.4376900e-10 9.8956600e-12 2.8703900e-13 6.4673500e-15
 3.6266670e+06 4.1960110e-08 2.1180200e-10 8.6718800e-12 2.5380700e-13 5.7612400e-15
 3.7333330e+06 1.9870670e-08 1.7657300e-10 7.2911600e-12 2.1518500e-13 4.9291300e-15
 3.8400000e+06 2.3427160e-08 1.1810800e-10 4.9164300e-12 1.4629400e-13 3.3899500e-15
 3.9466670e+06 4.4495080e-08 1.1531100e-10 4.8414100e-12 1.4535500e-13 3.4277900e-15
 4.0533330e+06 4.5060150e-08 4.1546500e-11 1.7625300e-12 5.3397300e-14 1.0757900e-15
 4.1600000e+06 2.7674490e-08 -5.490110e-24 -3.549560e-24 5.5459900e-25 2.6621700e-24
 4.2666670e+06 6.5603580e-09 -1.069840e-24 -1.035620e-24 4.7936900e-26 5.1780900e-25
 4.3733330e+06 9.1683400e-12 2.0970700e-28 9.0457000e-28 -1.198280e-28 1.8091400e-28
 4.4800000e+06 2.4220380e-08 4.2188400e-25 -1.194820e-24 -9.489300e-25 2.8078300e-24
 4.5866670e+06 2.8146120e-08 -2.185180e-24 -8.330890e-25 3.9787600e-25 2.6381200e-24
 4.6933330e+06 1.4640800e-12 -2.577560e-28 1.4445000e-29 -9.383060e-30 1.6250600e-28
 4.8000000e+06 6.3508000e-13 -1.147690e-29 -3.759510e-29 -2.670980e-29 -3.446220e-29
 4.9066670e+06 2.1309000e-08 3.4912100e-25 6.3071900e-25 6.2307600e-25 2.1549600e-24
 5.0133330e+06 2.5354520e-08 -1.957350e-24 -5.003080e-25 6.4040000e-25 2.3139200e-24
 5.1200000e+06 7.0935900e-15 3.0620300e-31 -8.398450e-31 -2.649410e-32 -4.374190e-31
 5.2266670e+06 1.5938600e-08 -1.915470e-25 0.0000000e+00 7.6452300e-26 -5.897030e-25


#           E1 1.8000000e+07  incident energy
#          NEP            62  number of secondary energy points
#           ND             0  number of discrete lines
#           NA             4  number of angular parameters
# Energy       PL( 0)        PL( 1)        PL( 2)        PL( 3)        PL( 4)       
 0.0000000e+00 0.0000000e+00 0.0000000e+00 0.0000000e+00 0.0000000e+00 0.0000000e+00
 3.0000000e+04 6.9875700e-08 -1.230180e-23 6.8941000e-25 -4.478230e-25 7.7558700e-24
 1.2000000e+05 2.7670010e-07 9.8860900e-11 3.1272000e-12 7.1325400e-14 2.6302700e-16
 2.4000000e+05 4.2520170e-07 1.7256300e-10 5.5239100e-12 1.2703300e-13 3.9799900e-15
 3.6000000e+05 4.9015380e-07 2.2562100e-10 7.3106400e-12 1.6884000e-13 2.6780900e-15
 4.8000000e+05 5.1200230e-07 2.6773100e-10 8.7810100e-12 2.0601100e-13 4.0693000e-15
 6.0000000e+05 5.1183410e-07 3.0470400e-10 1.0118200e-11 2.4121900e-13 4.1292100e-15
 7.2000000e+05 5.0006160e-07 3.3953000e-10 1.1405700e-11 2.7421500e-13 5.8650900e-15
 8.4000000e+05 4.8167340e-07 3.7352400e-10 1.2697600e-11 3.0707100e-13 5.9777600e-15
 9.6000000e+05 4.5893340e-07 4.0703600e-10 1.4000000e-11 3.4372100e-13 6.5460200e-15
 1.0800000e+06 4.3323450e-07 4.3990800e-10 1.5305200e-11 3.8041100e-13 6.3297900e-15
 1.2000000e+06 4.0547360e-07 4.7174600e-10 1.6599500e-11 4.1588700e-13 7.9303200e-15
 1.3200000e+06 3.7643270e-07 5.0209900e-10 1.7869000e-11 4.5432400e-13 8.9170300e-15
 1.4400000e+06 3.4736140e-07 5.3057300e-10 1.9093700e-11 4.9163300e-13 1.0155500e-14
 1.5600000e+06 3.1862360e-07 5.5687100e-10 2.0263300e-11 5.2550500e-13 1.1232600e-14
 1.6800000e+06 2.9067500e-07 5.8080800e-10 2.1368800e-11 5.6162600e-13 1.2060800e-14
 1.8000000e+06 2.6390070e-07 6.0230900e-10 2.2401600e-11 5.9556900e-13 1.3075900e-14
 1.9200000e+06 2.3858990e-07 6.2139000e-10 2.3362800e-11 6.2824700e-13 1.4321700e-14
 2.0400000e+06 2.1493850e-07 6.3814700e-10 2.4251600e-11 6.5960200e-13 1.3641800e-14
 2.1600000e+06 1.9305960e-07 6.5271700e-10 2.5066200e-11 6.8816300e-13 1.5369400e-14
 2.2800000e+06 1.7299640e-07 6.6526500e-10 2.5819600e-11 7.1709300e-13 1.5021300e-14
 2.4000000e+06 1.5473570e-07 6.7598800e-10 2.6511500e-11 7.4151600e-13 1.6030800e-14
 2.5200000e+06 1.3822120e-07 6.8505000e-10 2.7145900e-11 7.6914600e-13 1.6176000e-14
 2.6400000e+06 1.2336550e-07 6.9262200e-10 2.7729900e-11 7.9319200e-13 1.6208700e-14
 2.7600000e+06 1.1006110e-07 6.9884000e-10 2.8262200e-11 8.1735800e-13 1.8396500e-14
 2.8800000e+06 9.8188050e-08 7.0380800e-10 2.8751700e-11 8.4010700e-13 1.9149200e-14
 3.0000000e+06 8.7621240e-08 7.0757900e-10 2.9196700e-11 8.6066600e-13 1.9709600e-14
 3.1200000e+06 7.8235700e-08 7.1017800e-10 2.9595500e-11 8.8144000e-13 2.0619000e-14
 3.2400000e+06 6.9909990e-08 7.1157000e-10 2.9946800e-11 9.0070100e-13 2.1195600e-14
 3.3600000e+06 6.2528830e-08 7.1167600e-10 3.0245300e-11 9.1859200e-13 2.1748800e-14
 3.4800000e+06 5.5984970e-08 7.1037800e-10 3.0484300e-11 9.3494500e-13 2.2400900e-14
 3.6000000e+06 5.0179950e-08 7.0751700e-10 3.0655200e-11 9.4937900e-13 2.2836000e-14
 3.7200000e+06 4.5024450e-08 7.0290900e-10 3.0748000e-11 9.6123200e-13 2.3292800e-14
 3.8400000e+06 4.0438310e-08 6.9634700e-10 3.0751200e-11 9.7054000e-13 2.3713400e-14
 3.9600000e+06 3.6350140e-08 6.8761800e-10 3.0653000e-11 9.7671200e-13 2.4245500e-14
 4.0800000e+06 3.2696780e-08 6.7650900e-10 3.0441200e-11 9.7888600e-13 2.4529300e-14
 4.2000000e+06 2.9422640e-08 6.6282100e-10 3.0103700e-11 9.7726300e-13 2.4687000e-14
 4.3200000e+06 2.6478940e-08 6.4637300e-10 2.9628600e-11 9.7068900e-13 2.4844600e-14
 4.4400000e+06 2.3822940e-08 6.2701200e-10 2.9005800e-11 9.5907000e-13 2.4713900e-14
 4.5600000e+06 2.1417260e-08 6.0461300e-10 2.8225300e-11 9.4184400e-13 2.4447000e-14
 4.6800000e+06 1.9229160e-08 5.7908300e-10 2.7279100e-11 9.1849800e-13 2.4111700e-14
 4.8000000e+06 1.7229940e-08 5.5035700e-10 2.6159900e-11 8.8875400e-13 2.3549600e-14
 4.9200000e+06 1.5394420e-08 5.1839400e-10 2.4861400e-11 8.5224100e-13 2.2907100e-14
 5.0400000e+06 1.3700440e-08 4.8317900e-10 2.3379200e-11 8.0873100e-13 2.1730700e-14
 5.1600000e+06 1.2128450e-08 4.4470700e-10 2.1708300e-11 7.5742400e-13 2.0562200e-14
 5.2800000e+06 1.0661180e-08 4.0299000e-10 1.9844800e-11 6.9864000e-13 1.9121600e-14
 5.4000000e+06 9.2833760e-09 3.5804000e-10 1.7785900e-11 6.3171300e-13 1.7471100e-14
 5.5200000e+06 7.9814880e-09 3.0667400e-10 1.5207200e-11 5.3906200e-13 1.4865400e-14
 5.6400000e+06 6.7434820e-09 2.5312000e-10 1.2525200e-11 4.4307100e-13 1.2190200e-14
 5.7600000e+06 5.8486120e-09 2.4937900e-10 1.2314900e-11 4.3471300e-13 1.1943600e-14
 5.8800000e+06 4.4149980e-09 1.3824600e-10 6.8145400e-12 2.4009900e-13 6.5612500e-15
 6.0000000e+06 1.2381230e-09 4.7826000e-11 2.3548100e-12 8.2884700e-14 2.2712400e-15
 6.1200000e+06 5.0377980e-09 4.5315400e-11 2.2281900e-12 7.8286400e-14 2.1334500e-15
 6.2400000e+06 8.3121300e-10 1.2002900e-12 5.8910800e-14 2.0594000e-15 5.3282800e-17
 6.3600000e+06 4.2686300e-13 -6.961150e-29 -6.738450e-29 3.1191100e-30 3.3692300e-29
 6.4800000e+06 1.5723350e-09 1.8563500e-26 -1.241040e-25 1.1718300e-26 -3.529220e-25
 6.6000000e+06 1.7179860e-09 7.4158900e-26 -2.034010e-25 -6.416560e-27 -1.059380e-25
 6.7200000e+06 4.7934400e-14 5.4028800e-31 -2.837600e-30 -1.100150e-30 -2.601130e-30
 6.8400000e+06 1.6208800e-14 -8.422490e-31 1.5992000e-31 -3.457380e-31 1.0794600e-30
 6.9600000e+06 1.2393800e-09 -2.239760e-26 -7.336810e-26 -5.212510e-26 -6.725410e-26
 7.0800000e+06 1.6097940e-09 -1.288060e-25 4.7647800e-26 2.2732700e-26 -9.926630e-26
 7.2000000e+06 1.1808570e-09 5.0973100e-26 -1.398070e-25 -4.410420e-27 -7.281640e-26


#           E1 2.0000000e+07  incident energy
#          NEP            71  number of secondary energy points
#           ND             0  number of discrete lines
#           NA             4  number of angular parameters
# Energy       PL( 0)        PL( 1)        PL( 2)        PL( 3)        PL( 4)       
 0.0000000e+00 0.0000000e+00 0.0000000e+00 0.0000000e+00 0.0000000e+00 0.0000000e+00
 3.3333320e+04 8.0883740e-08 -6.279580e-24 -2.394060e-24 1.1433800e-24 7.5811700e-24
 1.3333330e+05 3.2051100e-07 1.0219100e-10 3.4098100e-12 8.2286700e-14 3.3749600e-15
 2.6666670e+05 4.7101300e-07 1.7553700e-10 5.9368900e-12 1.4402500e-13 2.5341700e-15
 4.0000000e+05 5.6118370e-07 2.2792400e-10 7.8193200e-12 1.9311800e-13 3.0406800e-15
 5.3333330e+05 6.0750630e-07 2.7045000e-10 9.3998100e-12 2.3445000e-13 5.6376500e-15
