#    [ 5231 :  6 :   5 ]    52 - 122
# Energy and angle distribution
#           NK           356  number of subsections

#   Subsection             0
#          ZAP             1
#          LIP             0  product modifier
#          LAW             1  distribution law
#           NP            72  yield energy points
#   Energy[eV]  CrossSec [b]  Multiplicity  CrossSec x M
 1.0000000e+06 1.5695140e-05 0.0000000e+00 0.0000000e+00
 9.8402750e+06 2.1903497e-02 0.0000000e+00 0.0000000e+00
 1.0000000e+07 2.3551290e-02 6.9437730e-01 1.6353481e-02
 1.0500000e+07 3.0500650e-02 8.9588250e-01 2.7324999e-02
 1.1000000e+07 3.9873540e-02 9.5261070e-01 3.7983961e-02
 1.1500000e+07 5.2507250e-02 9.5897210e-01 5.0352988e-02
 1.2000000e+07 6.9490220e-02 9.6231990e-01 6.6871822e-02
 1.2500000e+07 9.2175940e-02 9.6694090e-01 8.9128686e-02
 1.3000000e+07 1.2202160e-01 9.7207380e-01 1.1861400e-01
 1.3500000e+07 1.5979020e-01 9.7706370e-01 1.5612520e-01
 1.4000000e+07 2.0356190e-01 9.8159720e-01 1.9981579e-01
 1.4500000e+07 2.4617110e-01 9.8551450e-01 2.4260519e-01
 1.5000000e+07 2.7562450e-01 9.8874410e-01 2.7252210e-01
 1.5500000e+07 2.8223260e-01 9.9128340e-01 2.7977249e-01
 1.6000000e+07 2.6660060e-01 9.9316690e-01 2.6477889e-01
 1.6500000e+07 2.3784780e-01 9.9446240e-01 2.3653069e-01
 1.7000000e+07 2.0556690e-01 9.9523370e-01 2.0458711e-01
 1.7500000e+07 1.7545490e-01 1.0570410e+00 1.8546302e-01
 1.8000000e+07 1.4964620e-01 1.2068000e+00 1.8059303e-01
 1.8500000e+07 1.2834510e-01 1.3715440e+00 1.7603095e-01
 1.9000000e+07 1.1100700e-01 1.5053950e+00 1.6710938e-01
 1.9500000e+07 9.6916570e-02 1.6048720e+00 1.5553869e-01
 2.0000000e+07 8.5410980e-02 1.6685750e+00 1.4251463e-01
 2.1000000e+07 6.7882960e-02 1.7344180e+00 1.1773743e-01
 2.2000000e+07 5.5544540e-02 1.7699510e+00 9.8311114e-02
 2.3000000e+07 4.6537450e-02 1.7924500e+00 8.3416052e-02
 2.4000000e+07 3.9746450e-02 1.8087420e+00 7.1891073e-02
 2.5000000e+07 3.4483760e-02 1.8198960e+00 6.2756857e-02
 2.6000000e+07 3.0311100e-02 1.8260290e+00 5.5348948e-02
 2.7000000e+07 2.6940110e-02 1.8273050e+00 4.9227798e-02
 2.8000000e+07 2.4175180e-02 1.8277510e+00 4.4186209e-02
 2.9000000e+07 2.1879830e-02 1.8551890e+00 4.0591220e-02
 3.0000000e+07 1.9956280e-02 1.9389360e+00 3.8693950e-02
 3.2000000e+07 1.6954830e-02 2.1559590e+00 3.6553918e-02
 3.4000000e+07 1.4778670e-02 2.3029930e+00 3.4035174e-02
 3.6000000e+07 1.3187040e-02 2.3759230e+00 3.1331392e-02
 3.8000000e+07 1.2020470e-02 2.4233550e+00 2.9129866e-02
 4.0000000e+07 1.1167350e-02 2.4985580e+00 2.7902272e-02
 4.2000000e+07 1.0546640e-02 2.6025220e+00 2.7447863e-02
 4.4000000e+07 1.0098290e-02 2.6986090e+00 2.7251336e-02
 4.6000000e+07 9.7773430e-03 2.7793390e+00 2.7174551e-02
 4.8000000e+07 9.5499730e-03 2.8359410e+00 2.7083160e-02
 5.0000000e+07 9.3906910e-03 2.8846500e+00 2.7088857e-02
 5.2000000e+07 9.2802900e-03 2.9300730e+00 2.7191927e-02
 5.4000000e+07 9.2043080e-03 2.9892600e+00 2.7514070e-02
 5.6000000e+07 9.1518680e-03 3.0557050e+00 2.7965409e-02
 5.8000000e+07 9.1148080e-03 3.1309460e+00 2.8537972e-02
 6.0000000e+07 9.0870180e-03 3.1970580e+00 2.9051724e-02
 6.2000000e+07 9.0639500e-03 3.2571170e+00 2.9522346e-02
 6.4000000e+07 9.0422380e-03 3.3134430e+00 2.9960940e-02
 6.6000000e+07 9.0194180e-03 3.3686390e+00 3.0383163e-02
 6.8000000e+07 8.9937150e-03 3.4324350e+00 3.0870342e-02
 7.0000000e+07 8.9638760e-03 3.4871770e+00 3.1258622e-02
 7.2000000e+07 8.9290550e-03 3.5446420e+00 3.1650303e-02
 7.4000000e+07 8.8887110e-03 3.5993770e+00 3.1993822e-02
 7.6000000e+07 8.8425410e-03 3.6485410e+00 3.2262373e-02
 7.8000000e+07 8.7904250e-03 3.6995480e+00 3.2520599e-02
 8.0000000e+07 8.7323800e-03 3.7522030e+00 3.2765662e-02
 8.5000000e+07 8.5623450e-03 3.8755270e+00 3.3183599e-02
 9.0000000e+07 8.3600620e-03 4.0029090e+00 3.3464567e-02
 9.5000000e+07 8.1310000e-03 4.1331280e+00 3.3606464e-02
 1.0000000e+08 7.8813820e-03 4.2585370e+00 3.3563157e-02
 1.1000000e+08 7.3463860e-03 4.4986270e+00 3.3048650e-02
 1.2000000e+08 6.8060490e-03 4.7386760e+00 3.2251661e-02
 1.3000000e+08 6.3082150e-03 4.9856590e+00 3.1450609e-02
 1.4000000e+08 5.8967580e-03 5.2205770e+00 3.0784479e-02
 1.5000000e+08 5.3853120e-03 5.4530170e+00 2.9366198e-02
 1.6000000e+08 4.9435590e-03 5.6858020e+00 2.8108098e-02
 1.7000000e+08 4.5589020e-03 5.9137550e+00 2.6960229e-02
 1.8000000e+08 4.2215340e-03 6.1347320e+00 2.5897980e-02
 1.9000000e+08 3.9237090e-03 6.3519240e+00 2.4923101e-02
 2.0000000e+08 3.6592420e-03 6.5642530e+00 2.4020190e-02


#           NR             1
#           NE            31
#         LANG             1  1: Legendre, 2:KM systematics, 11-15: tabulated
#          LEP             2  secondary energy interpolation
#           E1 1.0000000e+06  incident energy
#          NEP             3  number of secondary energy points
#           ND             0  number of discrete lines
#           NA             0  number of angular parameters
# Energy       Spectrum
 0.0000000e+00 0.0000000e+00
 5.0000000e-01 2.0000000e+00
 1.0000000e+00 0.0000000e+00


#           E1 9.8402750e+06  incident energy
#          NEP             3  number of secondary energy points
#           ND             0  number of discrete lines
#           NA             0  number of angular parameters
# Energy       Spectrum
 0.0000000e+00 0.0000000e+00
 5.0000000e-01 2.0000000e+00
 1.0000000e+00 0.0000000e+00


#           E1 1.0000000e+07  incident energy
#          NEP             3  number of secondary energy points
#           ND             0  number of discrete lines
#           NA             0  number of angular parameters
# Energy       Spectrum
 0.0000000e+00 0.0000000e+00
 1.0000000e+05 2.5477600e-11
 2.0000000e+05 1.9999950e-05


#           E1 1.2000000e+07  incident energy
#          NEP            24  number of secondary energy points
#           ND             0  number of discrete lines
#           NA             2  number of angular parameters
# Energy       PL( 0)        PL( 1)        PL( 2)       
 0.0000000e+00 0.0000000e+00 0.0000000e+00 0.0000000e+00
 2.5000000e+04 7.4586280e-08 8.8058800e-25 -5.887090e-24
 1.0000000e+05 2.8158430e-07 2.1553700e-11 4.6738500e-13
 2.0000000e+05 4.3188640e-07 3.5302100e-11 7.7637000e-13
 3.0000000e+05 5.1415830e-07 4.4153000e-11 9.8132200e-13
 4.0000000e+05 5.5607350e-07 4.9386100e-11 1.1104500e-12
 5.0000000e+05 5.7416420e-07 5.1745100e-11 1.1796900e-12
 6.0000000e+05 5.7726980e-07 5.1497500e-11 1.1808900e-12
 7.0000000e+05 5.7057680e-07 4.8617800e-11 1.1294700e-12
 8.0000000e+05 5.5690690e-07 4.2884900e-11 1.0072500e-12
 9.0000000e+05 2.7009860e-07 3.3963000e-11 8.1129300e-13
 1.0000000e+06 4.2527320e-07 1.2035300e-11 2.9069100e-13
 1.1000000e+06 7.8668970e-07 7.3145500e-12 1.7724700e-13
 1.2000000e+06 1.0109840e-06 5.9342700e-13 1.0204200e-14
 1.3000000e+06 3.9953570e-07 -7.033950e-23 3.9419100e-24
 1.4000000e+06 5.6117820e-07 -2.916010e-23 5.5367200e-24
 1.5000000e+06 1.0779050e-06 1.8775500e-23 -5.317440e-23
 1.6000000e+06 6.2796470e-07 -4.847830e-23 -1.239130e-23
 1.7000000e+06 2.8100280e-07 -2.068360e-23 -3.049680e-23
 1.8000000e+06 7.5055100e-12 -9.521900e-29 -8.886140e-28
 1.9000000e+06 3.4329740e-07 -5.126250e-24 -1.016120e-23
 2.0000000e+06 7.8357100e-13 -1.416040e-29 -4.638540e-29
 2.1000000e+06 9.0379300e-14 -1.591160e-29 8.9170400e-31
 2.2000000e+06 3.0269240e-07 -5.470150e-24 -1.791860e-23


#           E1 1.4000000e+07  incident energy
#          NEP            44  number of secondary energy points
#           ND             0  number of discrete lines
#           NA             3  number of angular parameters
# Energy       PL( 0)        PL( 1)        PL( 2)        PL( 3)       
 0.0000000e+00 0.0000000e+00 0.0000000e+00 0.0000000e+00 0.0000000e+00
 2.5000000e+04 7.0820460e-08 -1.246820e-23 6.9873200e-25 -4.538780e-25
 1.0000000e+05 2.6271770e-07 4.1721800e-11 9.7635700e-13 1.6968100e-14
 2.0000000e+05 4.0285040e-07 7.2500700e-11 1.7173500e-12 2.9374000e-14
 3.0000000e+05 4.7941530e-07 9.7247500e-11 2.3339700e-12 4.0579000e-14
 4.0000000e+05 5.1855640e-07 1.1820600e-10 2.8699700e-12 4.9569200e-14
 5.0000000e+05 5.3580270e-07 1.3697200e-10 3.3635000e-12 5.7935000e-14
 6.0000000e+05 5.3929550e-07 1.5445500e-10 3.8369200e-12 6.6591900e-14
 7.0000000e+05 5.3378010e-07 1.7107500e-10 4.2987400e-12 7.7695500e-14
 8.0000000e+05 5.2166150e-07 1.8692900e-10 4.7528700e-12 8.5989500e-14
 9.0000000e+05 5.0509540e-07 2.0190400e-10 5.1913900e-12 9.4912200e-14
 1.0000000e+06 4.8493510e-07 2.1578400e-10 5.6090600e-12 1.0435000e-13
 1.1000000e+06 4.6191220e-07 2.2830300e-10 6.0008400e-12 1.1352400e-13
 1.2000000e+06 4.3674810e-07 2.3919500e-10 6.3551900e-12 1.2113100e-13
 1.3000000e+06 4.1013760e-07 2.4823500e-10 6.6661800e-12 1.2845000e-13
 1.4000000e+06 3.8270190e-07 2.5522900e-10 6.9294000e-12 1.3468600e-13
 1.5000000e+06 3.5499700e-07 2.6005000e-10 7.1338900e-12 1.4018600e-13
 1.6000000e+06 3.2753040e-07 2.6261300e-10 7.2810800e-12 1.4406000e-13
 1.7000000e+06 3.0072440e-07 2.6287300e-10 7.3655500e-12 1.4765500e-13
 1.8000000e+06 2.7491380e-07 2.6081900e-10 7.3821100e-12 1.4928300e-13
 1.9000000e+06 2.5034870e-07 2.5645900e-10 7.3324900e-12 1.4960700e-13
 2.0000000e+06 2.2720030e-07 2.4979600e-10 7.2139600e-12 1.4861800e-13
 2.1000000e+06 2.0557090e-07 2.4084900e-10 7.0272600e-12 1.4631400e-13
 2.2000000e+06 1.8550470e-07 2.2960400e-10 6.7654800e-12 1.4280500e-13
 2.3000000e+06 1.6699860e-07 2.1603600e-10 6.4286700e-12 1.3604200e-13
 2.4000000e+06 1.5001330e-07 2.0009600e-10 6.0131500e-12 1.2838200e-13
 2.5000000e+06 1.3448270e-07 1.8169000e-10 5.5146300e-12 1.1990500e-13
 2.6000000e+06 1.2032200e-07 1.6071000e-10 4.9232200e-12 1.0673400e-13
 2.7000000e+06 1.0743480e-07 1.3699300e-10 4.2382500e-12 9.3954900e-14
 2.8000000e+06 9.5719060e-08 1.1036000e-10 3.4455400e-12 7.5356900e-14
 2.9000000e+06 4.3329090e-08 8.0586700e-11 2.5400700e-12 5.7345200e-14
 3.0000000e+06 7.3183640e-08 2.6941800e-11 8.5798300e-13 1.9735500e-14
 3.1000000e+06 8.1852330e-08 1.5782200e-11 5.0590200e-13 1.1825900e-14
 3.2000000e+06 9.9241070e-08 1.2415700e-12 4.0361900e-14 9.6886900e-16
 3.3000000e+06 4.6273700e-08 1.6880400e-25 4.5654700e-25 -1.624270e-25
 3.4000000e+06 5.7590780e-08 -1.390080e-24 5.6820400e-25 -1.571330e-24
 3.5000000e+06 8.1247350e-08 1.8583700e-24 8.0160600e-24 -1.061890e-24
 3.6000000e+06 6.0953420e-08 7.1963500e-25 -4.811050e-24 4.5427500e-25
 3.7000000e+06 3.9003220e-08 -7.048520e-25 -2.308890e-24 -1.640370e-24
 3.8000000e+06 2.7922800e-13 -5.046110e-30 -1.652960e-29 -1.174360e-29
 3.9000000e+06 2.8712170e-08 8.0959700e-25 -1.133120e-24 -5.966120e-25
 4.0000000e+06 2.8674000e-14 -5.181860e-31 -1.697430e-30 -1.205950e-30
 4.1000000e+06 3.2713000e-15 -2.539750e-31 -9.682630e-32 4.6243400e-32
 4.2000000e+06 1.7344160e-08 -2.084390e-25 0.0000000e+00 8.3194300e-26


#           E1 1.6000000e+07  incident energy
#          NEP            60  number of secondary energy points
#           ND             0  number of discrete lines
#           NA             4  number of angular parameters
# Energy       PL( 0)        PL( 1)        PL( 2)        PL( 3)        PL( 4)       
 0.0000000e+00 0.0000000e+00 0.0000000e+00 0.0000000e+00 0.0000000e+00 0.0000000e+00
 2.6666670e+04 6.5695290e-08 -5.256540e-24 1.9445000e-24 9.2771600e-25 -4.051030e-24
 1.0666670e+05 2.5938030e-07 5.7543100e-11 1.4418500e-12 2.5593900e-14 1.3090500e-16
 2.1333330e+05 3.9588260e-07 1.0036600e-10 2.5467400e-12 4.5642900e-14 6.3519000e-16
 3.2000000e+05 4.6822860e-07 1.3538300e-10 3.4793100e-12 6.3037100e-14 1.2511900e-15
 4.2666670e+05 5.0354990e-07 1.6598400e-10 4.3196600e-12 7.8113100e-14 1.4460700e-15
 5.3333330e+05 5.1754910e-07 1.9448000e-10 5.1206700e-12 9.8204600e-14 2.2279900e-15
 6.4000000e+05 5.1846870e-07 2.2212100e-10 5.9216100e-12 1.0900900e-13 1.3086900e-15
 7.4666670e+05 5.1078800e-07 2.4947700e-10 6.7299300e-12 1.2542500e-13 6.1407800e-15
 8.5333330e+05 4.9703810e-07 2.7665300e-10 7.5587900e-12 1.4549700e-13 5.0096000e-15
 9.6000000e+05 4.7871180e-07 3.0343900e-10 8.3936200e-12 1.6929100e-13 -1.165320e-15
 1.0666670e+06 4.5680720e-07 3.2954000e-10 9.2242000e-12 1.8425700e-13 2.6025400e-15
 1.1733330e+06 4.3219160e-07 3.5457400e-10 1.0042600e-11 2.0151800e-13 2.4079800e-15
 1.2800000e+06 4.0567310e-07 3.7819800e-10 1.0834600e-11 2.2236700e-13 2.9174200e-15
 1.3866670e+06 3.7801470e-07 4.0014000e-10 1.1594800e-11 2.4050700e-13 3.9871900e-15
 1.4933330e+06 3.4990340e-07 4.2020300e-10 1.2313800e-11 2.5801900e-13 3.9105800e-15
 1.6000000e+06 3.2195540e-07 4.3828600e-10 1.2990300e-11 2.7525900e-13 4.7455200e-15
 1.7066670e+06 2.9468400e-07 4.5435300e-10 1.3615200e-11 2.9189100e-13 4.5709700e-15
 1.8133330e+06 2.6849290e-07 4.6844700e-10 1.4194300e-11 3.0715600e-13 4.7979400e-15
 1.9200000e+06 2.4367880e-07 4.8065500e-10 1.4722000e-11 3.2143200e-13 5.0813700e-15
 2.0266670e+06 2.2043960e-07 4.9109200e-10 1.5204400e-11 3.3717600e-13 6.9613000e-15
 2.1333330e+06 1.9888820e-07 4.9989500e-10 1.5643700e-11 3.4936300e-13 6.2259100e-15
 2.2400000e+06 1.7906650e-07 5.0720000e-10 1.6040400e-11 3.6126700e-13 6.9334100e-15
 2.3466670e+06 1.6096080e-07 5.1312800e-10 1.6399100e-11 3.7449400e-13 6.9789200e-15
 2.4533330e+06 1.4451580e-07 5.1778100e-10 1.6719800e-11 3.8586000e-13 6.6543100e-15
 2.5600000e+06 1.2964680e-07 5.2123300e-10 1.7005900e-11 3.9559200e-13 6.1839200e-15
 2.6666670e+06 1.1624980e-07 5.2351500e-10 1.7254400e-11 4.0611300e-13 7.6537800e-15
 2.7733330e+06 1.0421020e-07 5.2462000e-10 1.7466900e-11 4.1518600e-13 7.3402300e-15
 2.8800000e+06 9.3409130e-08 5.2449500e-10 1.7639100e-11 4.2399100e-13 8.1299800e-15
 2.9866670e+06 8.3728600e-08 5.2305300e-10 1.7766500e-11 4.3101900e-13 7.9976700e-15
 3.0933330e+06 7.5054800e-08 5.2016700e-10 1.7842700e-11 4.3683400e-13 8.0278200e-15
 3.2000000e+06 6.7280740e-08 5.1567500e-10 1.7862800e-11 4.4229900e-13 7.8560000e-15
 3.3066670e+06 6.0307540e-08 5.0939900e-10 1.7816500e-11 4.4511800e-13 8.9206700e-15
 3.4133330e+06 5.4045300e-08 5.0114500e-10 1.7698200e-11 4.4784800e-13 8.4900500e-15
 3.5200000e+06 4.8413170e-08 4.9072700e-10 1.7496100e-11 4.4579100e-13 8.2980500e-15
 3.6266670e+06 4.3338960e-08 4.7796000e-10 1.7202400e-11 4.4256700e-13 8.8730500e-15
 3.7333330e+06 3.8758690e-08 4.6268100e-10 1.6809700e-11 4.3639000e-13 8.8341900e-15
 3.8400000e+06 3.4615850e-08 4.4475000e-10 1.6309500e-11 4.2744900e-13 8.7429900e-15
 3.9466670e+06 3.0860310e-08 4.2405400e-10 1.5695100e-11 4.1509200e-13 8.5345200e-15
 4.0533330e+06 2.7447790e-08 4.0050900e-10 1.4960300e-11 3.9934100e-13 8.2852800e-15
 4.1600000e+06 2.4338890e-08 3.7405700e-10 1.4100200e-11 3.7985500e-13 8.0270000e-15
 4.2666670e+06 2.1498520e-08 3.4466600e-10 1.3110400e-11 3.5638500e-13 7.5811800e-15
 4.3733330e+06 1.8895250e-08 3.1231800e-10 1.1987100e-11 3.2876100e-13 7.0481200e-15
 4.4800000e+06 1.6500870e-08 2.7701500e-10 1.0727400e-11 2.9682800e-13 6.3742700e-15
 4.5866670e+06 1.4289980e-08 2.3876300e-10 9.3284200e-12 2.6047700e-13 5.6054500e-15
 4.6933330e+06 1.2239690e-08 1.9757700e-10 7.7872900e-12 2.1931400e-13 4.8536100e-15
 4.8000000e+06 1.0329330e-08 1.5346900e-10 6.1020100e-12 1.7333500e-13 3.8489100e-15
 4.9066670e+06 5.0684680e-09 1.0645000e-10 4.2693000e-12 1.2243000e-13 2.6670800e-15
 5.0133330e+06 7.1505940e-09 4.0672700e-11 1.6457800e-12 4.7595500e-14 1.0619000e-15
 5.1200000e+06 5.7365430e-09 1.0310200e-11 4.1981000e-13 1.2231300e-14 2.8082300e-16
 5.2266670e+06 5.7119270e-09 4.5088500e-13 1.8496800e-14 5.3425500e-16 2.1029400e-17
 5.3333330e+06 3.6968760e-09 1.3486000e-26 3.6474300e-26 -1.297650e-26 1.1854100e-25
 5.4400000e+06 5.5547300e-09 -4.288200e-25 -1.096090e-25 1.4030000e-25 5.0694000e-25
 5.5466670e+06 3.0154660e-09 1.3016600e-25 -3.570160e-25 -1.126260e-26 -1.859460e-25
 5.6533330e+06 4.0706610e-09 -6.638310e-25 -6.425940e-25 2.9744600e-26 3.2129700e-25
 5.7600000e+06 1.9348340e-09 -3.798950e-26 -9.544770e-26 -5.762870e-26 -1.479440e-25
 5.8666670e+06 6.4923500e-10 -2.889730e-26 5.1244100e-26 -3.861860e-27 2.7223400e-26
 5.9733330e+06 1.2134340e-09 4.4265400e-27 1.1972000e-26 -4.259310e-27 3.8909100e-26
 6.0800000e+06 9.8439500e-17 -1.733060e-32 9.7122800e-34 -6.308840e-34 1.0926300e-32
 6.1866670e+06 8.8543800e-10 2.0252600e-26 8.7359500e-26 -1.157250e-26 1.7471900e-26


#           E1 1.8000000e+07  incident energy
#          NEP            70  number of secondary energy points
#           ND             0  number of discrete lines
#           NA             4  number of angular parameters
# Energy       PL( 0)        PL( 1)        PL( 2)        PL( 3)        PL( 4)       
 0.0000000e+00 0.0000000e+00 0.0000000e+00 0.0000000e+00 0.0000000e+00 0.0000000e+00
 3.0000000e+04 1.1211440e-07 4.0898700e-25 1.1061500e-24 -3.935360e-25 3.5949800e-24
 1.2000000e+05 4.4680230e-07 6.2439300e-11 1.6617800e-12 3.1412600e-14 1.2664700e-15
 2.4000000e+05 5.6366760e-07 1.0829900e-10 2.9240000e-12 5.7530300e-14 1.1054700e-15
 3.6000000e+05 5.7255500e-07 1.4582200e-10 3.9940500e-12 7.7766400e-14 1.7025800e-15
 4.8000000e+05 6.2697530e-07 1.7930700e-10 4.9813700e-12 9.8340500e-14 1.9758600e-15
 6.0000000e+05 6.4524620e-07 2.1133000e-10 5.9526200e-12 1.2015100e-13 1.4670100e-15
 7.2000000e+05 5.4690550e-07 2.4310100e-10 6.9443200e-12 1.4234400e-13 1.4841900e-15
 8.4000000e+05 4.8523340e-07 2.7498200e-10 7.9612600e-12 1.6478600e-13 2.1927500e-15
 9.6000000e+05 3.8318160e-07 3.0682100e-10 9.0018000e-12 1.8939500e-13 3.0663200e-15
 1.0800000e+06 3.6794950e-07 3.3819600e-10 1.0056600e-11 2.1275000e-13 2.1710700e-15
 1.2000000e+06 3.4902820e-07 3.6862300e-10 1.1104200e-11 2.3797100e-13 4.1977200e-15
 1.3200000e+06 3.2734350e-07 3.9765300e-10 1.2133500e-11 2.6473700e-13 5.2560100e-15
 1.4400000e+06 3.0381170e-07 4.2494500e-10 1.3133400e-11 2.9089500e-13 5.3007500e-15
 1.5600000e+06 2.7930440e-07 4.5029100e-10 1.4095900e-11 3.1507300e-13 4.1834200e-15
 1.6800000e+06 2.5460010e-07 4.7362200e-10 1.5012300e-11 3.4039500e-13 6.1445900e-15
 1.8000000e+06 2.3034870e-07 4.9497700e-10 1.5883700e-11 3.6378600e-13 6.2948700e-15
 1.9200000e+06 2.0705840e-07 5.1449200e-10 1.6712300e-11 3.8793100e-13 7.2971100e-15
 2.0400000e+06 1.8511190e-07 5.3235500e-10 1.7503200e-11 4.1207800e-13 7.9583500e-15
 2.1600000e+06 1.6521590e-07 5.4881200e-10 1.8263400e-11 4.3282200e-13 7.3195600e-15
 2.2800000e+06 1.4715640e-07 5.6409200e-10 1.8993700e-11 4.5769400e-13 7.8423200e-15
 2.4000000e+06 1.3090240e-07 5.7842800e-10 1.9707700e-11 4.8020200e-13 8.5673800e-15
 2.5200000e+06 1.1637290e-07 5.9201600e-10 2.0405600e-11 5.0240800e-13 9.3922000e-15
 2.6400000e+06 1.0345400e-07 6.0500500e-10 2.1094600e-11 5.2576200e-13 1.1312000e-14
 2.7600000e+06 9.2012680e-08 6.1748500e-10 2.1775900e-11 5.4837300e-13 1.1767500e-14
 2.8800000e+06 8.1908610e-08 6.2948800e-10 2.2451000e-11 5.7156700e-13 1.1430700e-14
 3.0000000e+06 7.3001210e-08 6.4096600e-10 2.3116700e-11 5.9687700e-13 1.3257900e-14
 3.1200000e+06 6.5155710e-08 6.5181800e-10 2.3770500e-11 6.1952900e-13 1.2386800e-14
 3.2400000e+06 5.8246460e-08 6.6187800e-10 2.4403400e-11 6.4293800e-13 1.3180200e-14
 3.3600000e+06 5.2159190e-08 6.7094300e-10 2.5008100e-11 6.6611600e-13 1.3770800e-14
 3.4800000e+06 4.6791700e-08 6.7878100e-10 2.5573800e-11 6.8850300e-13 1.4420700e-14
 3.6000000e+06 4.2053690e-08 6.8515400e-10 2.6090800e-11 7.1007000e-13 1.5068800e-14
 3.7200000e+06 3.7866110e-08 6.8983600e-10 2.6548500e-11 7.3015000e-13 1.5654900e-14
 3.8400000e+06 3.4160110e-08 6.9262800e-10 2.6937000e-11 7.4873700e-13 1.6206200e-14
 3.9600000e+06 3.0875700e-08 6.9336800e-10 2.7247800e-11 7.6513800e-13 1.6595100e-14
 4.0800000e+06 2.7960620e-08 6.9193500e-10 2.7473200e-11 7.7962300e-13 1.7236400e-14
 4.2000000e+06 2.5369110e-08 6.8825500e-10 2.7608000e-11 7.9134700e-13 1.7664400e-14
 4.3200000e+06 2.3060950e-08 6.8229300e-10 2.7647900e-11 8.0066900e-13 1.7984000e-14
 4.4400000e+06 2.1000670e-08 6.7405000e-10 2.7590200e-11 8.0714200e-13 1.8239700e-14
 4.5600000e+06 1.9156840e-08 6.6355900e-10 2.7433000e-11 8.1044800e-13 1.8648900e-14
 4.6800000e+06 1.7501630e-08 6.5086900e-10 2.7176300e-11 8.1086600e-13 1.8829200e-14
