#    [ 5225 :  6 :   5 ]    52 - 120
# Energy and angle distribution
#           NK           357  number of subsections

#   Subsection             0
#          ZAP             1
#          LIP             0  product modifier
#          LAW             1  distribution law
#           NP            71  yield energy points
#   Energy[eV]  CrossSec [b]  Multiplicity  CrossSec x M
 1.0000000e+06 1.5453210e-05 0.0000000e+00 0.0000000e+00
 1.0258120e+07 2.6291294e-02 0.0000000e+00 0.0000000e+00
 1.0500000e+07 2.9517770e-02 6.5441560e-01 1.9316889e-02
 1.1000000e+07 3.8502700e-02 8.5498470e-01 3.2919219e-02
 1.1500000e+07 5.0597750e-02 9.1927800e-01 4.6513398e-02
 1.2000000e+07 6.6834060e-02 9.2676730e-01 6.1939621e-02
 1.2500000e+07 8.8492560e-02 9.3277850e-01 8.2543957e-02
 1.3000000e+07 1.1697200e-01 9.3976760e-01 1.0992650e-01
 1.3500000e+07 1.5310630e-01 9.4751230e-01 1.4507010e-01
 1.4000000e+07 1.9538180e-01 9.5551270e-01 1.8668979e-01
 1.4500000e+07 2.3745990e-01 9.6319380e-01 2.2871990e-01
 1.5000000e+07 2.6808680e-01 9.7002020e-01 2.6004961e-01
 1.5500000e+07 2.7725940e-01 9.7562570e-01 2.7050140e-01
 1.6000000e+07 2.6430580e-01 9.7982340e-01 2.5897301e-01
 1.6500000e+07 2.3739500e-01 9.8283910e-01 2.3332109e-01
 1.7000000e+07 2.0603340e-01 9.8464910e-01 2.0287060e-01
 1.7500000e+07 1.7623810e-01 9.8551390e-01 1.7368510e-01
 1.8000000e+07 1.5044780e-01 9.9813760e-01 1.5016761e-01
 1.8500000e+07 1.2904760e-01 1.1038640e+00 1.4245100e-01
 1.9000000e+07 1.1157970e-01 1.2555400e+00 1.4009278e-01
 1.9500000e+07 9.7364600e-02 1.3904670e+00 1.3538226e-01
 2.0000000e+07 8.5751440e-02 1.5063690e+00 1.2917331e-01
 2.1000000e+07 6.8066140e-02 1.6400250e+00 1.1163017e-01
 2.2000000e+07 5.5628140e-02 1.7010000e+00 9.4623466e-02
 2.3000000e+07 4.6558930e-02 1.7272930e+00 8.0420914e-02
 2.4000000e+07 3.9729100e-02 1.7496360e+00 6.9511464e-02
 2.5000000e+07 3.4441960e-02 1.7625960e+00 6.0707261e-02
 2.6000000e+07 3.0253840e-02 1.7681360e+00 5.3492904e-02
 2.7000000e+07 2.6873030e-02 1.7698790e+00 4.7562011e-02
 2.8000000e+07 2.4101850e-02 1.7691240e+00 4.2639161e-02
 2.9000000e+07 2.1802490e-02 1.7661910e+00 3.8507362e-02
 3.0000000e+07 1.9876330e-02 1.7779950e+00 3.5340015e-02
 3.2000000e+07 1.6871890e-02 1.9066380e+00 3.2168587e-02
 3.4000000e+07 1.4693960e-02 2.0596380e+00 3.0264238e-02
 3.6000000e+07 1.3100800e-02 2.1643780e+00 2.8355083e-02
 3.8000000e+07 1.1932640e-02 2.2314720e+00 2.6627352e-02
 4.0000000e+07 1.1077770e-02 2.2804910e+00 2.5262755e-02
 4.2000000e+07 1.0455200e-02 2.3519660e+00 2.4590275e-02
 4.4000000e+07 1.0004950e-02 2.4309550e+00 2.4321583e-02
 4.6000000e+07 9.6821180e-03 2.5036350e+00 2.4240489e-02
 4.8000000e+07 9.4529230e-03 2.5716190e+00 2.4309316e-02
 5.0000000e+07 9.2919200e-03 2.6210750e+00 2.4354819e-02
 5.2000000e+07 9.1799290e-03 2.6637420e+00 2.4452962e-02
 5.4000000e+07 9.1025070e-03 2.7052360e+00 2.4624430e-02
 5.6000000e+07 9.0487890e-03 2.7494560e+00 2.4879247e-02
 5.8000000e+07 9.0106170e-03 2.7990160e+00 2.5220861e-02
 6.0000000e+07 8.9818850e-03 2.8551760e+00 2.5644862e-02
 6.2000000e+07 8.9580430e-03 2.9054330e+00 2.6026994e-02
 6.4000000e+07 8.9357220e-03 2.9602480e+00 2.6451953e-02
 6.6000000e+07 8.9124540e-03 3.0115340e+00 2.6840158e-02
 6.8000000e+07 8.8864570e-03 3.0661540e+00 2.7247246e-02
 7.0000000e+07 8.8564730e-03 3.1175680e+00 2.7610657e-02
 7.2000000e+07 8.8216470e-03 3.1675720e+00 2.7943202e-02
 7.4000000e+07 8.7814320e-03 3.2195840e+00 2.8272558e-02
 7.6000000e+07 8.7355180e-03 3.2703970e+00 2.8568612e-02
 7.8000000e+07 8.6837760e-03 3.3192520e+00 2.8823641e-02
 8.0000000e+07 8.6262160e-03 3.3632880e+00 2.9012449e-02
 8.5000000e+07 8.4578310e-03 3.4752150e+00 2.9392781e-02
 9.0000000e+07 8.2577280e-03 3.5947830e+00 2.9684740e-02
 9.5000000e+07 8.0312660e-03 3.7105880e+00 2.9800719e-02
 1.0000000e+08 7.7845630e-03 3.8204530e+00 2.9740557e-02
 1.1000000e+08 7.2559550e-03 4.0516560e+00 2.9398634e-02
 1.2000000e+08 6.7221660e-03 4.2780620e+00 2.8757843e-02
 1.3000000e+08 6.2304030e-03 4.4955730e+00 2.8009232e-02
 1.4000000e+08 5.8239780e-03 4.7201930e+00 2.7490300e-02
 1.5000000e+08 5.3188200e-03 4.9258880e+00 2.6199912e-02
 1.6000000e+08 4.8825040e-03 5.1365220e+00 2.5079089e-02
 1.7000000e+08 4.5025860e-03 5.3437540e+00 2.4060712e-02
 1.8000000e+08 4.1693760e-03 5.5554600e+00 2.3162802e-02
 1.9000000e+08 3.8752240e-03 5.7575690e+00 2.2311870e-02
 2.0000000e+08 3.6140200e-03 5.9447490e+00 2.1484442e-02


#           NR             1
#           NE            30
#         LANG             1  1: Legendre, 2:KM systematics, 11-15: tabulated
#          LEP             2  secondary energy interpolation
#           E1 1.0000000e+06  incident energy
#          NEP             3  number of secondary energy points
#           ND             0  number of discrete lines
#           NA             2  number of angular parameters
# Energy       PL( 0)        PL( 1)        PL( 2)       
 0.0000000e+00 0.0000000e+00 0.0000000e+00 0.0000000e+00
 5.0000000e-01 2.0000000e+00 0.0000000e+00 0.0000000e+00
 1.0000000e+00 0.0000000e+00 0.0000000e+00 0.0000000e+00


#           E1 1.0258120e+07  incident energy
#          NEP             3  number of secondary energy points
#           ND             0  number of discrete lines
#           NA             2  number of angular parameters
# Energy       PL( 0)        PL( 1)        PL( 2)       
 0.0000000e+00 0.0000000e+00 0.0000000e+00 0.0000000e+00
 5.0000000e-01 2.0000000e+00 0.0000000e+00 0.0000000e+00
 1.0000000e+00 0.0000000e+00 0.0000000e+00 0.0000000e+00


#           E1 1.2000000e+07  incident energy
#          NEP            23  number of secondary energy points
#           ND             0  number of discrete lines
#           NA             2  number of angular parameters
# Energy       PL( 0)        PL( 1)        PL( 2)       
 0.0000000e+00 0.0000000e+00 0.0000000e+00 0.0000000e+00
 2.5000000e+04 7.8299980e-08 -1.378500e-23 7.7252600e-25
 1.0000000e+05 2.9032260e-07 1.4134600e-11 3.3084600e-13
 2.0000000e+05 4.4727880e-07 2.1606300e-11 5.1027300e-13
 3.0000000e+05 5.3235570e-07 2.4391000e-11 5.7995900e-13
 4.0000000e+05 5.7454650e-07 2.3473400e-11 5.6011900e-13
 5.0000000e+05 2.9724470e-07 1.9303100e-11 4.6258900e-13
 6.0000000e+05 8.7505060e-07 1.2185000e-11 2.8813700e-13
 7.0000000e+05 4.6040020e-07 1.5505300e-12 3.5430500e-14
 8.0000000e+05 8.3560330e-07 1.4943100e-13 1.9451200e-14
 9.0000000e+05 9.3127880e-07 -3.096280e-23 -9.188220e-24
 1.0000000e+06 1.8087800e-06 2.1355000e-23 -1.427670e-22
 1.1000000e+06 9.4905020e-07 -1.547680e-22 -1.498170e-22
 1.2000000e+06 4.4468340e-07 1.2538700e-23 -1.754940e-23
 1.3000000e+06 5.7533500e-09 9.4261400e-26 1.7029200e-25
 1.4000000e+06 4.2862060e-07 -3.327690e-23 -1.268660e-23
 1.5000000e+06 5.7318250e-07 2.4742100e-23 -6.786190e-23
 1.6000000e+06 2.7574500e-13 2.3330900e-30 2.4485100e-29
 1.7000000e+06 5.4298850e-07 -3.996750e-23 -5.892980e-23
 1.8000000e+06 0.0000000e+00 0.0000000e+00 0.0000000e+00
 1.9000000e+06 0.0000000e+00 0.0000000e+00 0.0000000e+00
 2.0000000e+06 0.0000000e+00 0.0000000e+00 0.0000000e+00
 2.1000000e+06 0.0000000e+00 0.0000000e+00 0.0000000e+00


#           E1 1.4000000e+07  incident energy
#          NEP            43  number of secondary energy points
#           ND             0  number of discrete lines
#           NA             3  number of angular parameters
# Energy       PL( 0)        PL( 1)        PL( 2)        PL( 3)       
 0.0000000e+00 0.0000000e+00 0.0000000e+00 0.0000000e+00 0.0000000e+00
 2.5000000e+04 7.7696340e-08 -5.718950e-24 -8.432280e-24 4.3027300e-24
 1.0000000e+05 2.7179130e-07 3.9060100e-11 9.7527000e-13 1.7109900e-14
 2.0000000e+05 4.1600050e-07 6.7975800e-11 1.7169000e-12 3.1271300e-14
 3.0000000e+05 4.9318820e-07 9.0718000e-11 2.3164200e-12 4.2342100e-14
 4.0000000e+05 5.3119390e-07 1.0946300e-10 2.8293000e-12 5.2850500e-14
 5.0000000e+05 5.4614820e-07 1.2576600e-10 3.2879100e-12 6.2590300e-14
 6.0000000e+05 5.4687720e-07 1.4051300e-10 3.7124100e-12 7.0754800e-14
 7.0000000e+05 5.3862610e-07 1.5411600e-10 4.1157700e-12 7.5835900e-14
 8.0000000e+05 5.2418250e-07 1.6666200e-10 4.4990200e-12 8.6564500e-14
 9.0000000e+05 5.0564750e-07 1.7806800e-10 4.8586700e-12 9.4935000e-14
 1.0000000e+06 4.8378980e-07 1.8812300e-10 5.1863100e-12 1.0149800e-13
 1.1000000e+06 4.5948250e-07 1.9658300e-10 5.4772700e-12 1.0957000e-13
 1.2000000e+06 4.3336030e-07 2.0320700e-10 5.7229300e-12 1.1530400e-13
 1.3000000e+06 4.0608650e-07 2.0777500e-10 5.9105400e-12 1.1955600e-13
 1.4000000e+06 3.7821300e-07 2.1011000e-10 6.0376200e-12 1.2394200e-13
 1.5000000e+06 3.5026630e-07 2.1007100e-10 6.0974700e-12 1.2630300e-13
 1.6000000e+06 3.2270080e-07 2.0756800e-10 6.0844500e-12 1.2830300e-13
 1.7000000e+06 2.9589510e-07 2.0254100e-10 5.9977700e-12 1.2697100e-13
 1.8000000e+06 2.7014840e-07 1.9495200e-10 5.8304300e-12 1.2276400e-13
 1.9000000e+06 2.4568290e-07 1.8477300e-10 5.5795600e-12 1.2079500e-13
 2.0000000e+06 2.2264890e-07 1.7198200e-10 5.2452500e-12 1.1524800e-13
 2.1000000e+06 2.0113370e-07 1.5654900e-10 4.8184300e-12 1.0438600e-13
 2.2000000e+06 1.8117130e-07 1.3841600e-10 4.3013900e-12 9.5830400e-14
 2.3000000e+06 1.6275230e-07 1.1752000e-10 3.6858000e-12 8.2453900e-14
 2.4000000e+06 1.4583360e-07 9.3749100e-11 2.9675400e-12 6.6873200e-14
 2.5000000e+06 6.5872210e-08 6.6971800e-11 2.1401700e-12 4.8867500e-14
 2.6000000e+06 1.6728810e-07 3.8203600e-11 1.2321700e-12 2.8132200e-14
 2.7000000e+06 6.6912980e-08 4.5237200e-12 1.4727100e-13 3.2615800e-15
 2.8000000e+06 1.3746560e-07 4.4109200e-13 1.4540300e-14 3.4664600e-16
 2.9000000e+06 9.4682780e-08 -3.147980e-24 -9.341630e-25 2.1247700e-24
 3.0000000e+06 2.1388290e-07 -1.026150e-23 2.1102200e-24 1.6944500e-24
 3.1000000e+06 1.1240860e-07 -2.229980e-23 -1.441770e-23 2.2526800e-24
 3.2000000e+06 6.2503070e-08 -1.227220e-24 -3.083350e-24 -1.861640e-24
 3.3000000e+06 1.2904640e-08 -2.332080e-25 -7.639220e-25 -5.427350e-25
 3.4000000e+06 4.8322010e-08 -8.732570e-25 -2.860540e-24 -2.032300e-24
 3.5000000e+06 4.8048270e-08 4.0653900e-25 4.2665000e-24 -2.975610e-25
 3.6000000e+06 1.0213400e-14 -4.900080e-31 1.0076800e-31 8.0913500e-32
 3.7000000e+06 3.2013880e-08 -7.727240e-25 3.1585700e-25 -8.734810e-25
 3.8000000e+06 0.0000000e+00 0.0000000e+00 0.0000000e+00 0.0000000e+00
 3.9000000e+06 0.0000000e+00 0.0000000e+00 0.0000000e+00 0.0000000e+00
 4.0000000e+06 0.0000000e+00 0.0000000e+00 0.0000000e+00 0.0000000e+00
 4.1000000e+06 0.0000000e+00 0.0000000e+00 0.0000000e+00 0.0000000e+00


#           E1 1.6000000e+07  incident energy
#          NEP            59  number of secondary energy points
#           ND             0  number of discrete lines
#           NA             4  number of angular parameters
# Energy       PL( 0)        PL( 1)        PL( 2)        PL( 3)        PL( 4)       
 0.0000000e+00 0.0000000e+00 0.0000000e+00 0.0000000e+00 0.0000000e+00 0.0000000e+00
 2.6666670e+04 7.0062110e-08 -1.389900e-23 -8.986240e-24 1.4040500e-24 6.7396800e-24
 1.0666670e+05 2.6780140e-07 5.5650800e-11 1.4867700e-12 2.8919200e-14 1.3586500e-15
 2.1333330e+05 4.0930180e-07 9.7485900e-11 2.6366300e-12 5.0909100e-14 5.1706400e-16
 3.2000000e+05 4.8263640e-07 1.3126500e-10 3.5943200e-12 6.9427800e-14 1.4145300e-15
 4.2666670e+05 5.1676120e-07 1.6036100e-10 4.4508100e-12 9.1234400e-14 7.7700300e-16
 5.3333330e+05 5.2870300e-07 1.8708400e-10 5.2457300e-12 1.0587000e-13 -3.302370e-15
 6.4000000e+05 5.2743300e-07 2.1273600e-10 6.0283400e-12 1.1391000e-13 3.0279900e-15
 7.4666670e+05 5.1749450e-07 2.3793100e-10 6.8152600e-12 1.4112600e-13 1.0108900e-14
 8.5333330e+05 5.0156470e-07 2.6273600e-10 7.6338600e-12 1.6051700e-13 2.4099800e-15
 9.6000000e+05 4.8144560e-07 2.8706700e-10 8.4256600e-12 1.7639100e-13 3.5886300e-15
 1.0666670e+06 4.5807090e-07 3.1062500e-10 9.2201200e-12 1.9626300e-13 2.3532300e-15
 1.1733330e+06 4.3232080e-07 3.3308400e-10 9.9959500e-12 2.1455400e-13 3.7116800e-15
 1.2800000e+06 4.0494920e-07 3.5412800e-10 1.0746700e-11 2.3261900e-13 3.8836400e-15
 1.3866670e+06 3.7668650e-07 3.7350000e-10 1.1457100e-11 2.5081700e-13 4.8758600e-15
 1.4933330e+06 3.4816230e-07 3.9100100e-10 1.2124500e-11 2.6950200e-13 4.2722400e-15
 1.6000000e+06 3.1994600e-07 4.0652400e-10 1.2741800e-11 2.8537700e-13 5.0420200e-15
 1.7066670e+06 2.9250900e-07 4.2002600e-10 1.3304700e-11 3.0097700e-13 4.2941800e-15
 1.8133330e+06 2.6622140e-07 4.3151400e-10 1.3809700e-11 3.1720000e-13 5.6316200e-15
 1.9200000e+06 2.4135360e-07 4.4105300e-10 1.4262200e-11 3.2955000e-13 6.6429200e-15
 2.0266670e+06 2.1808510e-07 4.4872500e-10 1.4661500e-11 3.4196700e-13 6.0074900e-15
 2.1333330e+06 1.9651590e-07 4.5463300e-10 1.5004800e-11 3.5397500e-13 6.8015200e-15
 2.2400000e+06 1.7668010e-07 4.5888300e-10 1.5300100e-11 3.6455100e-13 7.2597400e-15
 2.3466670e+06 1.5855960e-07 4.6156800e-10 1.5545000e-11 3.7331300e-13 7.5138800e-15
 2.4533330e+06 1.4209740e-07 4.6276400e-10 1.5740300e-11 3.8150100e-13 7.9078500e-15
 2.5600000e+06 1.2720850e-07 4.6252100e-10 1.5887400e-11 3.9028400e-13 7.3411500e-15
 2.6666670e+06 1.1378980e-07 4.6085600e-10 1.5986400e-11 3.9519500e-13 7.2519900e-15
 2.7733330e+06 1.0172790e-07 4.5775100e-10 1.6031700e-11 4.0091100e-13 8.2094200e-15
 2.8800000e+06 9.0905120e-08 4.5314700e-10 1.6023600e-11 4.0444800e-13 8.5585500e-15
 2.9866670e+06 8.1204420e-08 4.4695800e-10 1.5957000e-11 4.0740900e-13 8.2374500e-15
 3.0933330e+06 7.2512660e-08 4.3905500e-10 1.5822500e-11 4.0720300e-13 9.1205100e-15
 3.2000000e+06 6.4723040e-08 4.2928400e-10 1.5616800e-11 4.0623800e-13 8.4004800e-15
 3.3066670e+06 5.7736410e-08 4.1747400e-10 1.5329500e-11 4.0199000e-13 7.7961900e-15
 3.4133330e+06 5.1462160e-08 4.0344100e-10 1.4952800e-11 3.9578200e-13 7.4571100e-15
 3.5200000e+06 4.5818450e-08 3.8699300e-10 1.4474300e-11 3.8683700e-13 8.0950600e-15
 3.6266670e+06 4.0731930e-08 3.6795000e-10 1.3888000e-11 3.7474200e-13 7.8073900e-15
 3.7333330e+06 3.6137380e-08 3.4614200e-10 1.3183400e-11 3.5877200e-13 7.6182900e-15
 3.8400000e+06 3.1977030e-08 3.2142200e-10 1.2352400e-11 3.3922300e-13 7.1785300e-15
 3.9466670e+06 2.8199710e-08 2.9366400e-10 1.1386500e-11 3.1556300e-13 6.7175600e-15
 4.0533330e+06 2.4760210e-08 2.6276600e-10 1.0279000e-11 2.8734000e-13 6.3168700e-15
 4.1600000e+06 2.1618440e-08 2.2865200e-10 9.0236000e-12 2.5447600e-13 5.6119100e-15
 4.2666670e+06 1.8738820e-08 1.9126600e-10 7.6142500e-12 2.1656800e-13 4.8469900e-15
 4.3733330e+06 1.6089590e-08 1.5057200e-10 6.0464600e-12 1.7349000e-13 3.8673000e-15
 4.4800000e+06 7.6144970e-09 1.0654600e-10 4.3155000e-12 1.2501500e-13 2.8164800e-15
 4.5866670e+06 1.3176930e-08 4.5029900e-11 1.8402400e-12 5.3740200e-14 1.2290400e-15
 4.6933330e+06 3.5724520e-09 1.3063200e-11 5.3731000e-13 1.5795400e-14 3.6799100e-16
 4.8000000e+06 1.5213440e-08 1.2698700e-12 5.2599100e-14 1.5532500e-15 4.1252000e-17
 4.9066670e+06 3.8237850e-09 -4.020730e-25 2.6408500e-25 -4.296920e-27 -2.640850e-25
 5.0133330e+06 1.5480560e-08 2.6964900e-25 -7.636750e-25 -6.065130e-25 1.7946400e-24
 5.1200000e+06 8.4317390e-09 -9.757810e-25 2.4956900e-25 1.3062800e-25 -1.247840e-25
 5.2266670e+06 7.1828210e-09 -1.424940e-24 -9.212770e-25 1.4394400e-25 6.9095700e-25
 5.3333330e+06 1.2730800e-09 1.5030400e-26 -1.004840e-25 9.4880400e-27 -2.857520e-25
 5.4400000e+06 5.3698590e-09 -1.054350e-25 -2.649020e-25 -1.599400e-25 -4.105970e-25
 5.5466670e+06 2.8809900e-15 -3.334080e-31 8.5273500e-32 4.4633500e-32 -4.263680e-32
 5.6533330e+06 3.2382900e-16 -1.553640e-32 3.1949800e-33 2.5654700e-33 -3.274850e-32
 5.7600000e+06 1.6640240e-09 3.8061200e-26 1.6417700e-25 -2.174850e-26 3.2835300e-26
 5.8666670e+06 0.0000000e+00 0.0000000e+00 0.0000000e+00 0.0000000e+00 0.0000000e+00
 5.9733330e+06 0.0000000e+00 0.0000000e+00 0.0000000e+00 0.0000000e+00 0.0000000e+00
 6.0800000e+06 0.0000000e+00 0.0000000e+00 0.0000000e+00 0.0000000e+00 0.0000000e+00


#           E1 1.8000000e+07  incident energy
#          NEP            69  number of secondary energy points
#           ND             0  number of discrete lines
#           NA             4  number of angular parameters
# Energy       PL( 0)        PL( 1)        PL( 2)        PL( 3)        PL( 4)       
 0.0000000e+00 0.0000000e+00 0.0000000e+00 0.0000000e+00 0.0000000e+00 0.0000000e+00
 3.0000000e+04 9.0321640e-08 -6.001700e-24 -9.802480e-24 4.6869900e-24 1.5372100e-23
 1.2000000e+05 3.5752300e-07 7.3126800e-11 2.0759800e-12 4.3227400e-14 6.1036300e-16
 2.4000000e+05 3.8543630e-07 1.2730700e-10 3.6643200e-12 7.6288700e-14 1.8206200e-15
 3.6000000e+05 4.5278930e-07 1.7108000e-10 4.9897900e-12 1.0353200e-13 2.1437700e-15
 4.8000000e+05 4.8415640e-07 2.0964500e-10 6.1991700e-12 1.3132700e-13 2.7019000e-15
 6.0000000e+05 4.9518900e-07 2.4615400e-10 7.3723900e-12 1.5818900e-13 2.7796000e-15
 7.2000000e+05 4.9356450e-07 2.8213400e-10 8.5625500e-12 1.8574200e-13 2.7127000e-15
 8.4000000e+05 4.8318010e-07 3.1809000e-10 9.7785000e-12 2.1645800e-13 2.4394000e-15
 9.6000000e+05 4.6623510e-07 3.5391000e-10 1.1017700e-11 2.4645600e-13 4.6141800e-15
 1.0800000e+06 4.4417980e-07 3.8918100e-10 1.2268200e-11 2.7736700e-13 3.7952900e-15
 1.2000000e+06 4.1819690e-07 4.2337800e-10 1.3515700e-11 3.0819000e-13 4.8004000e-15
 1.3200000e+06 3.8942270e-07 4.5601200e-10 1.4737400e-11 3.4231000e-13 6.1851900e-15
 1.4400000e+06 3.5895280e-07 4.8669200e-10 1.5920900e-11 3.7106600e-13 7.3796700e-15
 1.5600000e+06 3.2779020e-07 5.1516500e-10 1.7056000e-11 4.0279700e-13 6.6626500e-15
 1.6800000e+06 2.9718030e-07 5.4131900e-10 1.8136700e-11 4.3573400e-13 6.9370000e-15
 1.8000000e+06 2.6812930e-07 5.6517100e-10 1.9159200e-11 4.6456100e-13 8.7510100e-15
 1.9200000e+06 2.4076820e-07 5.8683900e-10 2.0127100e-11 4.9333600e-13 9.0213400e-15
 2.0400000e+06 2.1536680e-07 6.0650900e-10 2.1044000e-11 5.2234500e-13 9.4936300e-15
 2.1600000e+06 1.9206810e-07 6.2441200e-10 2.1914100e-11 5.4831600e-13 1.1733000e-14
 2.2800000e+06 1.7091270e-07 6.4079500e-10 2.2745000e-11 5.7672700e-13 1.2906200e-14
 2.4000000e+06 1.5186250e-07 6.5589400e-10 2.3543700e-11 6.0539900e-13 1.0641600e-14
 2.5200000e+06 1.3482380e-07 6.6991900e-10 2.4315000e-11 6.3258900e-13 1.1774500e-14
 2.6400000e+06 1.1966590e-07 6.8304300e-10 2.5065200e-11 6.5730300e-13 1.3170500e-14
 2.7600000e+06 1.0623680e-07 6.9536400e-10 2.5797300e-11 6.8415500e-13 1.4649300e-14
 2.8800000e+06 9.4374950e-08 7.0693300e-10 2.6513000e-11 7.1135700e-13 1.5388800e-14
 3.0000000e+06 8.3918630e-08 7.1772400e-10 2.7207200e-11 7.3593400e-13 1.4501600e-14
 3.1200000e+06 7.4711790e-08 7.2763200e-10 2.7876900e-11 7.6302100e-13 1.6261300e-14
 3.2400000e+06 6.6608180e-08 7.3650600e-10 2.8515400e-11 7.8890800e-13 1.7064100e-14
 3.3600000e+06 5.9473870e-08 7.4413400e-10 2.9113000e-11 8.1382400e-13 1.7793400e-14
 3.4800000e+06 5.3188420e-08 7.5027500e-10 2.9658500e-11 8.3797000e-13 1.8374500e-14
 3.6000000e+06 4.7644750e-08 7.5467000e-10 3.0140000e-11 8.6026800e-13 1.9123300e-14
 3.7200000e+06 4.2748660e-08 7.5706200e-10 3.0544800e-11 8.8064200e-13 1.9736000e-14
 3.8400000e+06 3.8417770e-08 7.5721500e-10 3.0860900e-11 8.9895400e-13 2.0515100e-14
 3.9600000e+06 3.4580280e-08 7.5492800e-10 3.1077700e-11 9.1417500e-13 2.0938800e-14
 4.0800000e+06 3.1173600e-08 7.5004100e-10 3.1184800e-11 9.2669800e-13 2.1507900e-14
 4.2000000e+06 2.8143100e-08 7.4244100e-10 3.1174700e-11 9.3552300e-13 2.1913600e-14
 4.3200000e+06 2.5440960e-08 7.3205900e-10 3.1040900e-11 9.4067300e-13 2.2169200e-14
 4.4400000e+06 2.3025170e-08 7.1886900e-10 3.0779400e-11 9.4182400e-13 2.2467800e-14
 4.5600000e+06 2.0858730e-08 7.0287900e-10 3.0386200e-11 9.3881400e-13 2.2535600e-14
 4.6800000e+06 1.8909000e-08 6.8412600e-10 2.9859800e-11 9.3146900e-13 2.2694200e-14
 4.8000000e+06 1.7147090e-08 6.6266500e-10 2.9199300e-11 9.1944300e-13 2.2610400e-14
 4.9200000e+06 1.5547520e-08 6.3856700e-10 2.8404000e-11 9.0299600e-13 2.2447200e-14
 5.0400000e+06 1.4087740e-08 6.1190600e-10 2.7474400e-11 8.8169200e-13 2.2007700e-14
 5.1600000e+06 1.2747870e-08 5.8275900e-10 2.6410200e-11 8.5545500e-13 2.1679700e-14
