#    [ 6255 :  6 :   5 ]    62 - 154
# Energy and angle distribution
#           NK           321  number of subsections

#   Subsection             0
#          ZAP             1
#          LIP             0  product modifier
#          LAW             1  distribution law
#           NP            75  yield energy points
#   Energy[eV]  CrossSec [b]  Multiplicity  CrossSec x M
 1.0000000e+06 3.0842690e-05 0.0000000e+00 0.0000000e+00
 7.9668070e+06 2.4443892e-02 0.0000000e+00 0.0000000e+00
 8.5000000e+06 3.1924130e-02 9.8395660e-01 3.1411958e-02
 9.0000000e+06 4.0906840e-02 9.8896150e-01 4.0455290e-02
 9.5000000e+06 5.3905200e-02 9.9051390e-01 5.3393850e-02
 1.0000000e+07 7.3589420e-02 9.9171650e-01 7.2979842e-02
 1.0500000e+07 1.0283710e-01 9.9311530e-01 1.0212910e-01
 1.1000000e+07 1.4359650e-01 9.9451520e-01 1.4280890e-01
 1.1500000e+07 1.9252600e-01 9.9580840e-01 1.9171901e-01
 1.2000000e+07 2.3510720e-01 9.9690350e-01 2.3437919e-01
 1.2500000e+07 2.5283630e-01 9.9776730e-01 2.5227179e-01
 1.3000000e+07 2.4542490e-01 9.9840600e-01 2.4503369e-01
 1.3500000e+07 2.3006180e-01 9.9884990e-01 2.2979721e-01
 1.4000000e+07 2.2120570e-01 1.0195280e+00 2.2552540e-01
 1.4500000e+07 2.2379290e-01 1.2069960e+00 2.7011714e-01
 1.5000000e+07 2.3549410e-01 1.4326800e+00 3.3738769e-01
 1.5500000e+07 2.4833830e-01 1.5921580e+00 3.9539381e-01
 1.6000000e+07 2.5187350e-01 1.6900870e+00 4.2568813e-01
 1.6500000e+07 2.4039030e-01 1.7443850e+00 4.1933323e-01
 1.7000000e+07 2.1697920e-01 1.7766890e+00 3.8550456e-01
 1.7500000e+07 1.8896450e-01 1.7999030e+00 3.4011777e-01
 1.8000000e+07 1.6200870e-01 1.8150630e+00 2.9405600e-01
 1.8500000e+07 1.3862660e-01 1.8258420e+00 2.5311027e-01
 1.9000000e+07 1.1927460e-01 1.8345500e+00 2.1881522e-01
 1.9500000e+07 1.0353590e-01 1.8429860e+00 1.9081521e-01
 2.0000000e+07 9.0766100e-02 1.8494390e+00 1.6786637e-01
 2.1000000e+07 7.1542090e-02 1.8592510e+00 1.3301470e-01
 2.2000000e+07 5.8245440e-02 1.8663570e+00 1.0870678e-01
 2.3000000e+07 4.8676600e-02 1.8856950e+00 9.1789221e-02
 2.4000000e+07 4.1542560e-02 1.9963260e+00 8.2932493e-02
 2.5000000e+07 3.6064730e-02 2.1422170e+00 7.7258478e-02
 2.6000000e+07 3.1756940e-02 2.2449580e+00 7.1292997e-02
 2.7000000e+07 2.8304000e-02 2.3129340e+00 6.5465284e-02
 2.8000000e+07 2.5494160e-02 2.3550980e+00 6.0041245e-02
 2.9000000e+07 2.3180440e-02 2.3852650e+00 5.5291492e-02
 3.0000000e+07 2.1257700e-02 2.4211810e+00 5.1468739e-02
 3.2000000e+07 1.8295210e-02 2.5315800e+00 4.6315788e-02
 3.4000000e+07 1.6185170e-02 2.6589320e+00 4.3035266e-02
 3.6000000e+07 1.4669760e-02 2.7490710e+00 4.0328212e-02
 3.8000000e+07 1.3580130e-02 2.8158900e+00 3.8240152e-02
 4.0000000e+07 1.2800000e-02 2.8763160e+00 3.6816845e-02
 4.2000000e+07 1.2246410e-02 2.9566490e+00 3.6208336e-02
 4.4000000e+07 1.1858770e-02 3.0387160e+00 3.6035434e-02
 4.6000000e+07 1.1592250e-02 3.1149420e+00 3.6109186e-02
 4.8000000e+07 1.1413380e-02 3.1878840e+00 3.6384531e-02
 5.0000000e+07 1.1297080e-02 3.2608510e+00 3.6838095e-02
 5.2000000e+07 1.1224540e-02 3.3402040e+00 3.7492253e-02
 5.4000000e+07 1.1181610e-02 3.4157320e+00 3.8193383e-02
 5.6000000e+07 1.1157720e-02 3.4863120e+00 3.8899293e-02
 5.8000000e+07 1.1144970e-02 3.5610660e+00 3.9687974e-02
 6.0000000e+07 1.1137470e-02 3.6298590e+00 4.0427446e-02
 6.2000000e+07 1.1130880e-02 3.7055580e+00 4.1246121e-02
 6.4000000e+07 1.1122050e-02 3.7766440e+00 4.2004023e-02
 6.6000000e+07 1.1108690e-02 3.8484680e+00 4.2751438e-02
 6.8000000e+07 1.1089230e-02 3.9223110e+00 4.3495409e-02
 7.0000000e+07 1.1062580e-02 3.9880900e+00 4.4118565e-02
 7.2000000e+07 1.1028080e-02 4.0597140e+00 4.4770851e-02
 7.4000000e+07 1.0985360e-02 4.1351410e+00 4.5426013e-02
 7.6000000e+07 1.0934280e-02 4.2069920e+00 4.6000428e-02
 7.8000000e+07 1.0874890e-02 4.2811240e+00 4.6556753e-02
 8.0000000e+07 1.0807380e-02 4.3477370e+00 4.6987646e-02
 8.5000000e+07 1.0605050e-02 4.5179190e+00 4.7912757e-02
 9.0000000e+07 1.0360040e-02 4.6897100e+00 4.8585583e-02
 9.5000000e+07 1.0080030e-02 4.8640990e+00 4.9030264e-02
 1.0000000e+08 9.7733040e-03 5.0255910e+00 4.9116629e-02
 1.1000000e+08 9.1132230e-03 5.3501530e+00 4.8757137e-02
 1.2000000e+08 8.4447840e-03 5.6599430e+00 4.7796996e-02
 1.3000000e+08 7.8281780e-03 5.9763700e+00 4.6784088e-02
 1.4000000e+08 7.3182790e-03 6.2528920e+00 4.5760408e-02
 1.5000000e+08 6.6839410e-03 6.5438730e+00 4.3738861e-02
 1.6000000e+08 6.1359310e-03 6.8202250e+00 4.1848430e-02
 1.7000000e+08 5.6586810e-03 7.0886910e+00 4.0112641e-02
 1.8000000e+08 5.2400560e-03 7.3593950e+00 3.8563642e-02
 1.9000000e+08 4.8704690e-03 7.6272780e+00 3.7148421e-02
 2.0000000e+08 4.5422560e-03 7.8710120e+00 3.5752151e-02


#           NR             1
#           NE            31
#         LANG             1  1: Legendre, 2:KM systematics, 11-15: tabulated
#          LEP             2  secondary energy interpolation
#           E1 1.0000000e+06  incident energy
#          NEP             3  number of secondary energy points
#           ND             0  number of discrete lines
#           NA             0  number of angular parameters
# Energy       Spectrum
 0.0000000e+00 0.0000000e+00
 5.0000000e-01 2.0000000e+00
 1.0000000e+00 0.0000000e+00


#           E1 7.9668070e+06  incident energy
#          NEP             3  number of secondary energy points
#           ND             0  number of discrete lines
#           NA             0  number of angular parameters
# Energy       Spectrum
 0.0000000e+00 0.0000000e+00
 5.0000000e-01 2.0000000e+00
 1.0000000e+00 0.0000000e+00


#           E1 1.0000000e+07  incident energy
#          NEP            22  number of secondary energy points
#           ND             0  number of discrete lines
#           NA             0  number of angular parameters
# Energy       Spectrum
 0.0000000e+00 0.0000000e+00
 2.5000000e+04 1.2518500e-07
 1.0000000e+05 4.8055390e-07
 2.0000000e+05 5.2539570e-07
 3.0000000e+05 5.6555840e-07
 4.0000000e+05 6.1575730e-07
 5.0000000e+05 6.6621260e-07
 6.0000000e+05 7.0240950e-07
 7.0000000e+05 7.1446490e-07
 8.0000000e+05 7.0058870e-07
 9.0000000e+05 6.6528720e-07
 1.0000000e+06 6.1569310e-07
 1.1000000e+06 5.5870650e-07
 1.2000000e+06 4.9969060e-07
 1.3000000e+06 4.4225910e-07
 1.4000000e+06 3.8855360e-07
 1.5000000e+06 1.7247720e-07
 1.6000000e+06 5.7100120e-07
 1.7000000e+06 2.1588140e-07
 1.8000000e+06 1.8418070e-07
 1.9000000e+06 5.8311590e-07
 2.0000000e+06 2.5937860e-07


#           E1 1.2000000e+07  incident energy
#          NEP            42  number of secondary energy points
#           ND             0  number of discrete lines
#           NA             3  number of angular parameters
# Energy       PL( 0)        PL( 1)        PL( 2)        PL( 3)       
 0.0000000e+00 0.0000000e+00 0.0000000e+00 0.0000000e+00 0.0000000e+00
 2.5000000e+04 1.1019820e-07 -8.555470e-24 -3.261730e-24 1.5577700e-24
 1.0000000e+05 4.2598760e-07 2.5113900e-10 4.3511200e-12 5.3586600e-14
 2.0000000e+05 4.6818920e-07 3.1294600e-10 5.5045000e-12 7.0335400e-14
 3.0000000e+05 5.0745400e-07 3.8630100e-10 6.8943500e-12 8.7401000e-14
 4.0000000e+05 5.5657080e-07 4.8212900e-10 8.7388000e-12 1.0515400e-13
 5.0000000e+05 6.0634670e-07 5.9541100e-10 1.0934500e-11 1.3883200e-13
 6.0000000e+05 6.4321610e-07 7.1277700e-10 1.3280500e-11 1.7667000e-13
 7.0000000e+05 6.5782860e-07 8.1950300e-10 1.5487600e-11 2.0588400e-13
 8.0000000e+05 6.4832580e-07 9.0503700e-10 1.7339300e-11 2.4625800e-13
 9.0000000e+05 6.1871870e-07 9.6531400e-10 1.8733200e-11 2.5934400e-13
 1.0000000e+06 5.7551350e-07 1.0012830e-09 1.9709200e-11 2.8095100e-13
 1.1000000e+06 5.2506000e-07 1.0166570e-09 2.0272700e-11 2.8918500e-13
 1.2000000e+06 4.7232650e-07 1.0157530e-09 2.0522700e-11 2.9669700e-13
 1.3000000e+06 4.2068260e-07 1.0027040e-09 2.0522300e-11 3.0078300e-13
 1.4000000e+06 3.7214590e-07 9.8087600e-10 2.0334900e-11 3.0210200e-13
 1.5000000e+06 3.2774300e-07 9.5281000e-10 2.0003600e-11 2.9962400e-13
 1.6000000e+06 2.8784050e-07 9.2029000e-10 1.9563300e-11 2.9749100e-13
 1.7000000e+06 2.5239890e-07 8.8447800e-10 1.9034400e-11 2.9281100e-13
 1.8000000e+06 2.2114960e-07 8.4604700e-10 1.8429700e-11 2.8619400e-13
 1.9000000e+06 1.9371100e-07 8.0526500e-10 1.7755700e-11 2.7987300e-13
 2.0000000e+06 1.6965940e-07 7.6213500e-10 1.7005700e-11 2.7048300e-13
 2.1000000e+06 1.4857130e-07 7.1641200e-10 1.6175200e-11 2.6219500e-13
 2.2000000e+06 1.3004700e-07 6.6769700e-10 1.5252100e-11 2.4932000e-13
 2.3000000e+06 1.1372200e-07 6.1546200e-10 1.4223300e-11 2.3472400e-13
 2.4000000e+06 9.9272030e-08 5.5910600e-10 1.3069700e-11 2.1780700e-13
 2.5000000e+06 8.6413430e-08 4.9799800e-10 1.1772400e-11 1.9919200e-13
 2.6000000e+06 7.4902090e-08 4.3150300e-10 1.0315200e-11 1.7597500e-13
 2.7000000e+06 6.4529940e-08 3.5903700e-10 8.6787800e-12 1.4946100e-13
 2.8000000e+06 5.5121130e-08 2.8006400e-10 6.8445500e-12 1.1899000e-13
 2.9000000e+06 4.6527340e-08 1.9411300e-10 4.7956300e-12 8.4775700e-14
 3.0000000e+06 3.8623780e-08 1.0080500e-10 2.5175100e-12 4.5006000e-14
 3.1000000e+06 3.1309070e-08 1.3514900e-24 -3.706830e-24 -1.169370e-25
 3.2000000e+06 2.7048250e-08 -1.405490e-24 2.6686500e-25 -5.769450e-25
 3.3000000e+06 2.3341060e-08 2.7557200e-25 -1.842310e-24 1.7395700e-25
 3.4000000e+06 2.0120050e-08 -1.553250e-24 -3.970180e-25 5.0818900e-25
 3.5000000e+06 9.5388620e-09 3.4797200e-26 9.4112700e-26 -3.348270e-26
 3.6000000e+06 2.2953370e-08 -4.041010e-24 2.2646300e-25 -1.471050e-25
 3.7000000e+06 1.2546230e-08 5.4157300e-25 -1.485410e-24 -4.685930e-26
 3.8000000e+06 1.3641630e-08 -1.059100e-24 -4.037750e-25 1.9283900e-25
 3.9000000e+06 2.3015620e-08 3.7708200e-25 6.8123300e-25 6.7297800e-25
 4.0000000e+06 1.2073800e-08 3.4044500e-25 -4.764920e-25 -2.508820e-25


#           E1 1.4000000e+07  incident energy
#          NEP            62  number of secondary energy points
#           ND             0  number of discrete lines
#           NA             4  number of angular parameters
# Energy       PL( 0)        PL( 1)        PL( 2)        PL( 3)        PL( 4)       
 0.0000000e+00 0.0000000e+00 0.0000000e+00 0.0000000e+00 0.0000000e+00 0.0000000e+00
 2.5000000e+04 1.4593310e-07 -2.637250e-24 -8.638870e-24 -6.137570e-24 -7.918960e-24
 1.0000000e+05 5.7991490e-07 3.5783300e-10 6.6914400e-12 9.1925900e-14 2.8291200e-15
 2.0000000e+05 4.1907040e-07 4.4729900e-10 8.4963000e-12 1.1521500e-13 1.3117200e-15
 3.0000000e+05 4.5661030e-07 5.5430100e-10 1.0683600e-11 1.4769300e-13 1.5307500e-15
 4.0000000e+05 5.0340540e-07 6.9503900e-10 1.3592200e-11 1.8932100e-13 2.1821200e-15
 5.0000000e+05 5.5089970e-07 8.6311700e-10 1.7125000e-11 2.4218300e-13 3.1245700e-15
 6.0000000e+05 5.8664610e-07 1.0400420e-09 2.0939000e-11 2.9822300e-13 5.0175100e-16
 7.0000000e+05 6.0202750e-07 1.2048370e-09 2.4576900e-11 3.6429600e-13 3.9107500e-15
 8.0000000e+05 5.9525020e-07 1.3422580e-09 2.7766200e-11 4.1747300e-13 3.0563200e-15
 9.0000000e+05 5.6993310e-07 1.4460750e-09 3.0340100e-11 4.4588800e-13 -5.907250e-15
 1.0000000e+06 5.3201180e-07 1.5172830e-09 3.2249200e-11 4.8967300e-13 5.7861800e-15
 1.1000000e+06 4.8730210e-07 1.5607960e-09 3.3616500e-11 5.1789600e-13 6.3558800e-15
 1.2000000e+06 4.4036570e-07 1.5827800e-09 3.4537900e-11 5.3910800e-13 6.8165000e-15
 1.3000000e+06 3.9430650e-07 1.5891160e-09 3.5128800e-11 5.5455300e-13 6.8406500e-15
 1.4000000e+06 3.5099160e-07 1.5847370e-09 3.5481600e-11 5.6669300e-13 7.2563600e-15
 1.5000000e+06 3.1138030e-07 1.5734940e-09 3.5676600e-11 5.7909300e-13 7.1420000e-15
 1.6000000e+06 2.7582710e-07 1.5582300e-09 3.5774800e-11 5.8662000e-13 7.6586500e-15
 1.7000000e+06 2.4431290e-07 1.5409440e-09 3.5817600e-11 5.9521600e-13 8.7055300e-15
 1.8000000e+06 2.1660780e-07 1.5229800e-09 3.5832500e-11 6.0317700e-13 7.6533300e-15
 1.9000000e+06 1.9237660e-07 1.5051560e-09 3.5843500e-11 6.1062900e-13 8.0504200e-15
 2.0000000e+06 1.7124420e-07 1.4879100e-09 3.5857900e-11 6.1683900e-13 8.0662600e-15
 2.1000000e+06 1.5283420e-07 1.4713570e-09 3.5879100e-11 6.2435500e-13 8.3589600e-15
 2.2000000e+06 1.3679020e-07 1.4553820e-09 3.5907800e-11 6.3294900e-13 9.1284900e-15
 2.3000000e+06 1.2278620e-07 1.4396890e-09 3.5931600e-11 6.4076400e-13 9.9183100e-15
 2.4000000e+06 1.1053140e-07 1.4238390e-09 3.5944500e-11 6.4850900e-13 9.2673700e-15
 2.5000000e+06 9.9771310e-08 1.4073090e-09 3.5931400e-11 6.5542900e-13 9.7192000e-15
 2.6000000e+06 9.0285920e-08 1.3895460e-09 3.5877600e-11 6.6215300e-13 9.1678300e-15
 2.7000000e+06 8.1887700e-08 1.3700030e-09 3.5766600e-11 6.6675900e-13 9.6196500e-15
 2.8000000e+06 7.4418280e-08 1.3481880e-09 3.5585100e-11 6.6991500e-13 9.3801700e-15
 2.9000000e+06 6.7744840e-08 1.3236990e-09 3.5320600e-11 6.7393700e-13 8.9144900e-15
 3.0000000e+06 6.1756310e-08 1.2962430e-09 3.4961400e-11 6.7409000e-13 1.0049900e-14
 3.1000000e+06 5.6359660e-08 1.2656200e-09 3.4500700e-11 6.7211700e-13 1.0424300e-14
 3.2000000e+06 5.1476670e-08 1.2317470e-09 3.3933900e-11 6.6788100e-13 1.0173200e-14
 3.3000000e+06 4.7040950e-08 1.1946140e-09 3.3256900e-11 6.6132700e-13 1.0212400e-14
 3.4000000e+06 4.2995540e-08 1.1542750e-09 3.2468300e-11 6.5257300e-13 1.0159200e-14
 3.5000000e+06 3.9291020e-08 1.1108190e-09 3.1568200e-11 6.4094900e-13 1.0152100e-14
 3.6000000e+06 3.5883990e-08 1.0643520e-09 3.0557000e-11 6.2673000e-13 9.9477100e-15
 3.7000000e+06 3.2736010e-08 1.0149770e-09 2.9434700e-11 6.0996800e-13 9.8239800e-15
 3.8000000e+06 2.9812720e-08 9.6277900e-10 2.8201300e-11 5.9031600e-13 9.6140100e-15
 3.9000000e+06 2.7083260e-08 9.0781400e-10 2.6856000e-11 5.6767900e-13 9.3745200e-15
 4.0000000e+06 2.4519750e-08 8.5010400e-10 2.5397100e-11 5.4203800e-13 8.9317600e-15
 4.1000000e+06 2.2096920e-08 7.8963300e-10 2.3821300e-11 5.1337900e-13 8.6260500e-15
 4.2000000e+06 1.9791770e-08 7.2634300e-10 2.2124600e-11 4.8150700e-13 8.1964700e-15
 4.3000000e+06 1.7583310e-08 6.6013300e-10 2.0301300e-11 4.4602900e-13 7.6059700e-15
 4.4000000e+06 1.5452300e-08 5.9086100e-10 1.8344300e-11 4.0697400e-13 7.0931800e-15
 4.5000000e+06 1.3381020e-08 5.1834400e-10 1.6245400e-11 3.6380100e-13 6.3989500e-15
 4.6000000e+06 1.1353060e-08 4.4235700e-10 1.3994100e-11 3.1633400e-13 5.6108000e-15
 4.7000000e+06 9.3531580e-09 3.6263600e-10 1.1579000e-11 2.6406800e-13 4.6480700e-15
 4.8000000e+06 7.3670100e-09 2.7887800e-10 8.9869200e-12 2.0702200e-13 3.8276900e-15
 4.9000000e+06 5.3811410e-09 1.9074200e-10 6.2032100e-12 1.4418800e-13 2.6478800e-15
 5.0000000e+06 3.3829230e-09 9.7861400e-11 3.2115500e-12 7.5312900e-14 1.3722600e-15
 5.1000000e+06 1.3633690e-09 -1.003530e-25 -1.479650e-25 7.5501800e-26 2.0513300e-25
 5.2000000e+06 1.1675270e-09 -2.109910e-26 -6.911460e-26 -4.910310e-26 -6.335500e-26
 5.3000000e+06 9.9969000e-10 2.5719500e-26 -1.282210e-25 2.2610800e-27 4.9315900e-26
 5.4000000e+06 8.5585900e-10 -4.106160e-26 8.4441100e-27 6.7803800e-27 -8.655220e-26
 5.5000000e+06 4.0755300e-10 -1.814010e-26 3.2168100e-26 -2.424260e-27 1.7089300e-26
 5.6000000e+06 8.3783700e-10 7.0889800e-27 7.4396700e-26 -5.188700e-27 6.6130400e-26
 5.7000000e+06 5.2022100e-10 9.0614900e-27 -2.566310e-26 -2.038170e-26 6.0308300e-26
 5.8000000e+06 6.6387500e-10 -1.199730e-26 -3.929970e-26 -2.792090e-26 -3.602470e-26
 5.9000000e+06 8.0553400e-10 -1.598030e-25 -1.033190e-25 1.6143000e-26 7.7489000e-26
 6.0000000e+06 5.3749000e-10 -9.713310e-27 -3.181800e-26 -2.260540e-26 -2.916650e-26


#           E1 1.6000000e+07  incident energy
#          NEP            77  number of secondary energy points
#           ND             0  number of discrete lines
#           NA             4  number of angular parameters
# Energy       PL( 0)        PL( 1)        PL( 2)        PL( 3)        PL( 4)       
 0.0000000e+00 0.0000000e+00 0.0000000e+00 0.0000000e+00 0.0000000e+00 0.0000000e+00
 2.6666670e+04 2.7326050e-07 -2.873350e-23 1.8872400e-23 -3.070720e-25 -1.887240e-23
 1.0666670e+05 5.2218890e-07 3.0227500e-10 6.0499900e-12 8.7534200e-14 1.9851400e-15
 2.1333330e+05 6.3126450e-07 3.8048900e-10 7.7398900e-12 1.1043000e-13 -1.474170e-15
 3.2000000e+05 6.7803640e-07 4.7834700e-10 9.8863100e-12 1.4570000e-13 1.6471700e-16
 4.2666670e+05 7.0453840e-07 6.0733300e-10 1.2750900e-11 1.8833000e-13 -3.342640e-15
 5.3333330e+05 7.0835080e-07 7.5750800e-10 1.6135100e-11 2.4934100e-13 -6.866700e-16
 6.4000000e+05 6.7748990e-07 9.0889900e-10 1.9657300e-11 3.0801100e-13 8.3418400e-15
 7.4666670e+05 6.4770990e-07 1.0422710e-09 2.2884300e-11 3.5721000e-13 9.2556900e-16
 8.5333330e+05 5.9308870e-07 1.1466220e-09 2.5536000e-11 4.0480300e-13 6.1477300e-15
 9.6000000e+05 5.1652340e-07 1.2198950e-09 2.7570700e-11 4.4853900e-13 7.5997000e-15
 1.0666670e+06 4.5217820e-07 1.2657940e-09 2.9017600e-11 4.7558600e-13 6.7338000e-15
 1.1733330e+06 3.6945960e-07 1.2903060e-09 2.9993300e-11 5.0272700e-13 7.1679500e-15
 1.2800000e+06 3.2600120e-07 1.2995000e-09 3.0625800e-11 5.1487000e-13 6.0108500e-15
 1.3866670e+06 2.7981600e-07 1.2985160e-09 3.1026200e-11 5.2984500e-13 6.7449100e-15
 1.4933330e+06 2.3595780e-07 1.2913980e-09 3.1274700e-11 5.4086800e-13 7.6581300e-15
 1.6000000e+06 2.0175560e-07 1.2810680e-09 3.1441100e-11 5.5121100e-13 7.8080600e-15
 1.7066670e+06 1.7332150e-07 1.2695620e-09 3.1569900e-11 5.6146300e-13 7.7583800e-15
 1.8133330e+06 1.4884880e-07 1.2582260e-09 3.1698100e-11 5.7041000e-13 7.9489600e-15
 1.9200000e+06 1.2978720e-07 1.2478790e-09 3.1843300e-11 5.8080600e-13 7.6799800e-15
 2.0266670e+06 1.0702200e-07 1.2389460e-09 3.2018700e-11 5.9083500e-13 8.8887400e-15
 2.1333330e+06 9.1842650e-08 1.2315490e-09 3.2229100e-11 6.0274900e-13 8.5638300e-15
 2.2400000e+06 8.2571030e-08 1.2255850e-09 3.2472500e-11 6.1435100e-13 9.3622700e-15
 2.3466670e+06 7.4566970e-08 1.2207650e-09 3.2745000e-11 6.2737600e-13 8.8395700e-15
 2.4533330e+06 6.7637100e-08 1.2166790e-09 3.3033300e-11 6.4073400e-13 9.2289100e-15
 2.5600000e+06 6.1614450e-08 1.2128450e-09 3.3325300e-11 6.5422400e-13 9.9266400e-15
 2.6666670e+06 5.6357060e-08 1.2087570e-09 3.3608300e-11 6.6773600e-13 1.0907700e-14
 2.7733330e+06 5.1745790e-08 1.2039410e-09 3.3870500e-11 6.8122800e-13 1.0877800e-14
 2.8800000e+06 4.7681810e-08 1.1979930e-09 3.4096200e-11 6.9339400e-13 1.0875800e-14
 2.9866670e+06 4.4083680e-08 1.1906060e-09 3.4277800e-11 7.0504900e-13 1.1185500e-14
 3.0933330e+06 4.0884460e-08 1.1815830e-09 3.4407900e-11 7.1599900e-13 1.1444900e-14
 3.2000000e+06 3.8029030e-08 1.1708420e-09 3.4481000e-11 7.2518000e-13 1.1644200e-14
 3.3066670e+06 3.5471640e-08 1.1583850e-09 3.4496400e-11 7.3348900e-13 1.2091800e-14
 3.4133330e+06 3.3173970e-08 1.1442970e-09 3.4454500e-11 7.4105800e-13 1.2444900e-14
 3.5200000e+06 3.1103420e-08 1.1287040e-09 3.4358500e-11 7.4777700e-13 1.2691700e-14
 3.6266670e+06 2.9232020e-08 1.1117700e-09 3.4211300e-11 7.5250600e-13 1.3121500e-14
 3.7333330e+06 2.7535430e-08 1.0936610e-09 3.4017100e-11 7.5593700e-13 1.2915200e-14
 3.8400000e+06 2.5992300e-08 1.0745400e-09 3.3779200e-11 7.5872700e-13 1.3254400e-14
 3.9466670e+06 2.4583780e-08 1.0545550e-09 3.3501700e-11 7.6039800e-13 1.3478600e-14
 4.0533330e+06 2.3293190e-08 1.0338350e-09 3.3187800e-11 7.6125900e-13 1.3540200e-14
 4.1600000e+06 2.2105630e-08 1.0124820e-09 3.2840100e-11 7.6112900e-13 1.3732300e-14
 4.2666670e+06 2.1007870e-08 9.9057300e-10 3.2460300e-11 7.6007200e-13 1.3817800e-14
 4.3733330e+06 1.9988050e-08 9.6815800e-10 3.2049600e-11 7.5808600e-13 1.3932300e-14
 4.4800000e+06 1.9035580e-08 9.4526400e-10 3.1608400e-11 7.5527500e-13 1.4074200e-14
 4.5866670e+06 1.8140940e-08 9.2189300e-10 3.1136200e-11 7.5137700e-13 1.4137800e-14
 4.6933330e+06 1.7295560e-08 8.9802300e-10 3.0631700e-11 7.4661500e-13 1.4206800e-14
 4.8000000e+06 1.6491690e-08 8.7361400e-10 3.0093100e-11 7.4074000e-13 1.4207000e-14
 4.9066670e+06 1.5722300e-08 8.4860600e-10 2.9517800e-11 7.3366700e-13 1.4133800e-14
 5.0133330e+06 1.4980970e-08 8.2292200e-10 2.8902200e-11 7.2535100e-13 1.4135400e-14
 5.1200000e+06 1.4261850e-08 7.9646900e-10 2.8242500e-11 7.1562500e-13 1.4089100e-14
 5.2266670e+06 1.3559530e-08 7.6913900e-10 2.7533900e-11 7.0438800e-13 1.3981400e-14
