#    [ 7637 :  6 :   5 ]    76 - 188
# Energy and angle distribution
#           NK           126  number of subsections
#          ZAP             1
#          LIP             0  product modifier
#          LAW             1  distribution law
#           NP            76  yield energy points
#   Energy[eV]  CrossSec [b]  Multiplicity  CrossSec x M
 1.0000000e+06 8.0924000e-05 0.0000000e+00 0.0000000e+00
 7.5000000e+06 2.5042500e-02 0.0000000e+00 0.0000000e+00
 8.0000000e+06 3.0958900e-02 4.0709200e-01 1.2603121e-02
 8.5000000e+06 3.8464800e-02 9.4260300e-01 3.6257036e-02
 9.0000000e+06 4.8319000e-02 9.7831600e-01 4.7271251e-02
 9.5000000e+06 6.1835400e-02 9.8533000e-01 6.0928275e-02
 1.0000000e+07 8.0781410e-02 9.8839000e-01 7.9843538e-02
 1.0500000e+07 1.0802000e-01 9.9053700e-01 1.0699781e-01
 1.1000000e+07 1.4822900e-01 9.9229200e-01 1.4708645e-01
 1.1500000e+07 2.0832700e-01 9.9390000e-01 2.0705621e-01
 1.2000000e+07 2.9408100e-01 9.9529500e-01 2.9269735e-01
 1.2500000e+07 3.9301000e-01 9.9640100e-01 3.9159556e-01
 1.3000000e+07 4.6014100e-01 9.9740100e-01 4.5894509e-01
 1.3500000e+07 4.7941900e-01 9.9814900e-01 4.7853160e-01
 1.4000000e+07 4.8488700e-01 9.9858200e-01 4.8419943e-01
 1.4500000e+07 4.8453100e-01 1.0272300e+00 4.9772478e-01
 1.5000000e+07 4.6186000e-01 1.1494100e+00 5.3086650e-01
 1.5500000e+07 4.1240800e-01 1.2773700e+00 5.2679761e-01
 1.6000000e+07 3.4952900e-01 1.4541700e+00 5.0827459e-01
 1.6500000e+07 2.8824400e-01 1.5815200e+00 4.5586365e-01
 1.7000000e+07 2.3605300e-01 1.6950400e+00 4.0011928e-01
 1.7500000e+07 1.9431000e-01 1.7662800e+00 3.4320587e-01
 1.8000000e+07 1.6171500e-01 1.7988400e+00 2.9089941e-01
 1.8500000e+07 1.3637100e-01 1.8316000e+00 2.4977712e-01
 1.9000000e+07 1.1655400e-01 1.8467100e+00 2.1524144e-01
 1.9500000e+07 1.0090600e-01 1.8661100e+00 1.8830170e-01
 2.0000000e+07 8.8407210e-02 1.8745300e+00 1.6572197e-01
 2.1000000e+07 6.9750510e-02 1.8952100e+00 1.3219186e-01
 2.2000000e+07 5.6984410e-02 1.9079400e+00 1.0872284e-01
 2.3000000e+07 4.7913100e-02 1.9260000e+00 9.2280631e-02
 2.4000000e+07 4.1262500e-02 2.0783900e+00 8.5759567e-02
 2.5000000e+07 3.6260200e-02 2.2500900e+00 8.1588713e-02
 2.6000000e+07 3.2417400e-02 2.4042000e+00 7.7937913e-02
 2.7000000e+07 2.9413500e-02 2.5002900e+00 7.3542280e-02
 2.8000000e+07 2.7031300e-02 2.5805200e+00 6.9754810e-02
 2.9000000e+07 2.5119100e-02 2.6311000e+00 6.6090864e-02
 3.0000000e+07 2.3568600e-02 2.6742300e+00 6.3027857e-02
 3.2000000e+07 2.1256200e-02 2.7484200e+00 5.8420965e-02
 3.4000000e+07 1.9669300e-02 2.8293400e+00 5.5651137e-02
 3.6000000e+07 1.8558800e-02 2.9394100e+00 5.4551922e-02
 3.8000000e+07 1.7770100e-02 3.0559600e+00 5.4304715e-02
 4.0000000e+07 1.7203400e-02 3.1994400e+00 5.5041246e-02
 4.2000000e+07 1.6792200e-02 3.3726500e+00 5.6634213e-02
 4.4000000e+07 1.6490600e-02 3.5290500e+00 5.8196152e-02
 4.6000000e+07 1.6266500e-02 3.6710300e+00 5.9714809e-02
 4.8000000e+07 1.6096800e-02 3.7980100e+00 6.1135807e-02
 5.0000000e+07 1.5964800e-02 3.9194900e+00 6.2573874e-02
 5.2000000e+07 1.5858200e-02 4.0227800e+00 6.3794050e-02
 5.4000000e+07 1.5767900e-02 4.1189400e+00 6.4947034e-02
 5.6000000e+07 1.5687300e-02 4.2279100e+00 6.6324493e-02
 5.8000000e+07 1.5611300e-02 4.3288400e+00 6.7578820e-02
 6.0000000e+07 1.5536100e-02 4.4208300e+00 6.8682457e-02
 6.2000000e+07 1.5459000e-02 4.5318500e+00 7.0057869e-02
 6.4000000e+07 1.5377900e-02 4.6198600e+00 7.1043745e-02
 6.6000000e+07 1.5291400e-02 4.7174100e+00 7.2135803e-02
 6.8000000e+07 1.5198500e-02 4.8015500e+00 7.2976358e-02
 7.0000000e+07 1.5098600e-02 4.9007100e+00 7.3993860e-02
 7.2000000e+07 1.4991200e-02 4.9821500e+00 7.4688407e-02
 7.4000000e+07 1.4876300e-02 5.0533400e+00 7.5175002e-02
 7.6000000e+07 1.4753600e-02 5.1505900e+00 7.5989745e-02
 7.8000000e+07 1.4623500e-02 5.2371800e+00 7.6585902e-02
 8.0000000e+07 1.4486100e-02 5.3253200e+00 7.7143118e-02
 8.5000000e+07 1.4113000e-02 5.5174100e+00 7.7867207e-02
 9.0000000e+07 1.3703000e-02 5.7348900e+00 7.8585198e-02
 9.5000000e+07 1.3263700e-02 5.8927700e+00 7.8159933e-02
 1.0000000e+08 1.2803700e-02 6.0758900e+00 7.7793873e-02
 1.1000000e+08 1.1856100e-02 6.4767200e+00 7.6788640e-02
 1.2000000e+08 1.0928900e-02 6.9380600e+00 7.5825364e-02
 1.3000000e+08 1.0088000e-02 7.3967300e+00 7.4618212e-02
 1.4000000e+08 9.3946210e-03 7.8270400e+00 7.3532074e-02
 1.5000000e+08 8.5622310e-03 8.1613300e+00 6.9879193e-02
 1.6000000e+08 7.8454200e-03 7.9189100e+00 6.2127175e-02
 1.7000000e+08 7.2229800e-03 7.1084700e+00 5.1344337e-02
 1.8000000e+08 6.6784210e-03 6.9673900e+00 4.6531164e-02
 1.9000000e+08 6.1987900e-03 7.0014700e+00 4.3400642e-02
 2.0000000e+08 5.7737700e-03 6.9831500e+00 4.0319102e-02


#           NR             1
#           NE            28
#         LANG             2  1: Legendre, 2:KM systematics, 11-15: tabulated
#          LEP             1  secondary energy interpolation
#           E1 1.0000000e+06  incident energy
#          NEP             2  number of secondary energy points
#           ND             0  number of discrete lines
#           NA             1  number of angular parameters
 0.0000000e+00 6.7024430e-04 0.0000000e+00
 1.4919930e+03 0.0000000e+00 0.0000000e+00


#           E1 8.5000000e+06  incident energy
#          NEP             2  number of secondary energy points
#           ND             0  number of discrete lines
#           NA             1  number of angular parameters
 0.0000000e+00 6.7024430e-04 0.0000000e+00
 1.4919930e+03 0.0000000e+00 0.0000000e+00


#           E1 9.0000000e+06  incident energy
#          NEP             9  number of secondary energy points
#           ND             0  number of discrete lines
#           NA             1  number of angular parameters
 0.0000000e+00 1.5302500e-08 7.4704300e-03
 1.4919930e+03 3.0537570e-08 5.2765200e-03
 3.4813180e+03 7.6194880e-08 3.3301200e-03
 7.4599660e+03 1.5224060e-07 2.3559700e-03
 1.4919930e+04 2.4608640e-07 2.0803300e-03
 3.4813180e+04 4.0907970e-07 2.1299000e-03
 7.4599670e+04 6.3348890e-07 2.3411400e-03
 3.4813180e+05 1.6166830e-06 5.0099000e-03
 8.4546290e+05 9.1462500e-12 5.0099000e-03


#           E1 1.0000000e+07  incident energy
#          NEP            20  number of secondary energy points
#           ND             0  number of discrete lines
#           NA             1  number of angular parameters
 0.0000000e+00 4.4428280e-09 2.4338700e-02
 1.4919930e+03 8.9440140e-09 1.7024900e-02
 3.4813180e+03 2.2026530e-08 1.0855100e-02
 7.4599660e+03 4.3646250e-08 7.7050600e-03
 1.4919930e+04 8.6653020e-08 5.4865300e-03
 3.4813180e+04 2.0275570e-07 3.8763200e-03
 7.4599670e+04 3.0926130e-07 4.1159500e-03
 1.4919930e+05 5.1363690e-07 4.4405200e-03
 2.4866550e+05 6.6138950e-07 4.6615500e-03
 3.4813180e+05 7.3637190e-07 4.8323400e-03
 4.4759790e+05 7.6306290e-07 5.3616400e-03
 5.4706420e+05 7.5488270e-07 6.2408800e-03
 6.4653040e+05 7.2788530e-07 7.2497500e-03
 7.4599660e+05 6.8955140e-07 8.4236900e-03
 8.4546290e+05 6.4636270e-07 9.7799800e-03
 9.4492910e+05 6.0160540e-07 1.1349800e-02
 1.0443950e+06 5.5739880e-07 1.3166400e-02
 1.3427940e+06 3.7265690e-07 2.7522800e-02
 1.8401250e+06 1.7731140e-08 1.0000000e+00
 2.3374560e+06 1.0000000e-19 1.0000000e+00


#           E1 1.2000000e+07  incident energy
#          NEP            35  number of secondary energy points
#           ND             0  number of discrete lines
#           NA             1  number of angular parameters
 0.0000000e+00 2.7438590e-09 6.3307000e-02
 1.4919930e+03 5.3850400e-09 4.5441900e-02
 3.4813180e+03 1.3349170e-08 2.8818100e-02
 7.4599660e+03 2.6470270e-08 2.0486200e-02
 1.4919930e+04 5.2548040e-08 1.4647100e-02
 3.4813180e+04 1.3049800e-07 9.8709500e-03
 7.4599670e+04 2.5863030e-07 8.2438800e-03
 1.4919930e+05 4.1278410e-07 9.7173700e-03
 2.4866550e+05 5.3772530e-07 1.0676900e-02
 3.4813180e+05 6.1309770e-07 1.1561800e-02
 4.4759790e+05 6.2621270e-07 1.2894400e-02
 5.4706420e+05 6.2847740e-07 1.3974200e-02
 6.4653040e+05 5.9764680e-07 1.5538800e-02
 7.4599660e+05 5.6524170e-07 1.7060600e-02
 8.4546290e+05 5.2483030e-07 1.8848200e-02
 9.4492910e+05 4.8466610e-07 2.0759300e-02
 1.0443950e+06 4.4518230e-07 2.2845800e-02
 1.1438620e+06 4.0730650e-07 2.5124800e-02
 1.2433280e+06 3.7195970e-07 2.7580500e-02
 1.3427940e+06 3.3962240e-07 3.0185400e-02
 1.4422600e+06 3.0896130e-07 3.3059800e-02
 1.5417260e+06 2.8205550e-07 3.5974000e-02
 1.6411930e+06 2.5703480e-07 3.9086500e-02
 1.7406590e+06 2.3391220e-07 4.2366900e-02
 1.8401250e+06 2.1322780e-07 4.5641400e-02
 1.9395910e+06 1.9430480e-07 4.8925500e-02
 2.0887900e+06 1.6086160e-07 5.5231900e-02
 2.2877230e+06 1.3263220e-07 6.0223700e-02
 2.4866560e+06 1.1052620e-07 7.7853200e-02
 2.6855880e+06 9.2690650e-08 1.0447000e-01
 2.8845200e+06 7.8267870e-08 1.3914300e-01
 3.2326520e+06 5.4044380e-08 2.6927500e-01
 3.7299830e+06 2.3066630e-08 1.0000000e+00
 4.2273140e+06 4.3036100e-15 1.0000000e+00
 4.7246450e+06 1.0000000e-19 1.0000000e+00


#           E1 1.4000000e+07  incident energy
#          NEP            43  number of secondary energy points
#           ND             0  number of discrete lines
#           NA             1  number of angular parameters
 0.0000000e+00 2.3577840e-09 8.5481800e-02
 1.4919930e+03 4.5964390e-09 6.1775400e-02
 3.4813180e+03 1.1227680e-08 3.9765200e-02
 7.4599660e+03 2.2204620e-08 2.8352300e-02
 1.4919930e+04 4.4119150e-08 2.0266000e-02
 3.4813180e+04 1.0990310e-07 1.3642100e-02
 7.4599670e+04 2.1889600e-07 1.1374800e-02
 1.4919930e+05 4.3501880e-07 1.0844100e-02
 2.4866550e+05 4.9397310e-07 1.3773200e-02
 3.4813180e+05 5.3445870e-07 1.5847400e-02
 4.4759790e+05 5.7402530e-07 1.6959400e-02
 5.4706420e+05 6.1381860e-07 1.7419600e-02
 6.4653040e+05 5.8686950e-07 1.9472100e-02
 7.4599660e+05 5.4887070e-07 2.1873000e-02
 8.4546290e+05 5.1093380e-07 2.4412700e-02
 9.4492910e+05 4.7308960e-07 2.7193800e-02
 1.0443950e+06 4.3577690e-07 3.0304800e-02
 1.1438620e+06 3.9859820e-07 3.3903900e-02
 1.2433280e+06 3.6138250e-07 3.8192500e-02
 1.3427940e+06 3.2961420e-07 4.2714200e-02
 1.4422600e+06 3.0155450e-07 4.7592300e-02
 1.5417260e+06 2.7353600e-07 5.3458800e-02
 1.6411930e+06 2.4803940e-07 6.0047700e-02
 1.7406590e+06 2.2743400e-07 6.6678800e-02
 1.8401250e+06 2.0685950e-07 7.4609200e-02
 1.9395910e+06 1.8783980e-07 8.3566900e-02
 2.0887900e+06 1.5696510e-07 1.0317600e-01
 2.2877230e+06 1.3137610e-07 1.2658000e-01
 2.4866560e+06 1.0984460e-07 1.5459100e-01
 2.6855880e+06 9.2070320e-08 1.8728200e-01
 2.8845200e+06 7.7583910e-08 2.2448300e-01
 3.0834530e+06 6.5831560e-08 2.6558100e-01
 3.2823850e+06 5.6164480e-08 3.0941600e-01
 3.4813180e+06 4.7908930e-08 3.5428000e-01
 3.6802500e+06 4.0551480e-08 3.9779100e-01
 3.8791830e+06 3.3798530e-08 4.3756100e-01
 4.2273140e+06 2.0279390e-08 5.2159300e-01
 4.7246450e+06 1.6248280e-08 7.0409700e-01
 5.2219770e+06 1.4723450e-08 8.3780700e-01
 5.7193080e+06 1.3542040e-08 1.0000000e+00
 6.2166390e+06 1.5231600e-13 1.0000000e+00
 6.7139700e+06 1.0000000e-19 1.0000000e+00
 7.2113010e+06 1.0000000e-19 1.0000000e+00


#           E1 1.6000000e+07  incident energy
#          NEP            48  number of secondary energy points
#           ND             0  number of discrete lines
#           NA             1  number of angular parameters
 0.0000000e+00 1.2085250e-08 1.2236300e-02
 1.4919930e+03 2.4083030e-08 8.6509900e-03
 3.4813180e+03 6.0014440e-08 5.4591300e-03
 7.4599660e+03 1.1925160e-07 3.8745900e-03
 1.4919930e+04 2.2383260e-07 2.9327800e-03
 3.4813180e+04 4.9150400e-07 2.2418800e-03
 7.4599670e+04 8.1930660e-07 2.2372600e-03
 1.4919930e+05 9.0616070e-07 3.8453500e-03
 2.4866550e+05 7.1481460e-07 7.0542400e-03
 3.4813180e+05 5.6679710e-07 1.1112800e-02
 4.4759790e+05 5.4386230e-07 1.3357600e-02
 5.4706420e+05 5.4564700e-07 1.4674900e-02
 6.4653040e+05 5.3848660e-07 1.5950000e-02
 7.4599660e+05 5.1593590e-07 1.7554700e-02
 8.4546290e+05 4.8649470e-07 1.9418000e-02
 9.4492910e+05 4.2492740e-07 2.3023400e-02
 1.0443950e+06 3.7460600e-07 2.6923100e-02
 1.1438620e+06 3.2817890e-07 3.1590100e-02
 1.2433280e+06 2.8809070e-07 3.6927900e-02
 1.3427940e+06 2.5045500e-07 4.3548500e-02
 1.4422600e+06 2.1907150e-07 5.1022500e-02
 1.5417260e+06 1.9243540e-07 5.9520300e-02
 1.6411930e+06 1.7120820e-07 6.8555400e-02
 1.7406590e+06 1.5458970e-07 7.7808500e-02
 1.8401250e+06 1.3872970e-07 8.8853500e-02
 1.9395910e+06 1.2655320e-07 9.9804800e-02
 2.0887900e+06 1.0724660e-07 1.2353000e-01
 2.2877230e+06 8.7963490e-08 1.5763400e-01
 2.4866560e+06 7.5652590e-08 1.9136000e-01
 2.6855880e+06 6.3503420e-08 2.3756900e-01
 2.8845200e+06 5.5115660e-08 2.8503400e-01
 3.0834530e+06 4.7475840e-08 3.4440900e-01
 3.2823850e+06 4.2143490e-08 4.0268900e-01
 3.4813180e+06 3.7122970e-08 4.7049000e-01
 3.6802500e+06 3.3371800e-08 5.3045600e-01
 3.8791830e+06 2.9663390e-08 5.9302400e-01
 4.2273140e+06 2.2038340e-08 7.2643600e-01
 4.7246450e+06 1.6516560e-08 8.2282400e-01
 5.2219770e+06 1.2405130e-08 8.8652700e-01
 5.7193080e+06 8.9532450e-09 9.2345900e-01
 6.2166390e+06 6.0604610e-09 9.4454900e-01
 6.7139700e+06 6.3935210e-09 9.7433400e-01
 7.2113010e+06 6.8347060e-09 9.8835500e-01
 7.7086320e+06 7.2929490e-09 1.0000000e+00
 8.2059630e+06 3.9840500e-14 1.0000000e+00
 8.7032940e+06 2.0463800e-19 1.0000000e+00
 9.2006250e+06 1.0000000e-19 1.0000000e+00
 9.6979560e+06 1.0000000e-19 1.0000000e+00


#           E1 1.8000000e+07  incident energy
#          NEP            53  number of secondary energy points
#           ND             0  number of discrete lines
#           NA             1  number of angular parameters
 0.0000000e+00 3.5725420e-09 3.3971800e-02
 1.4919930e+03 7.0733910e-09 2.4174300e-02
 3.4813180e+03 1.8862370e-08 1.4257100e-02
 7.4599660e+03 4.1229220e-08 9.2004400e-03
 1.4919930e+04 9.1292510e-08 5.9053000e-03
 3.4813180e+04 2.0888560e-07 4.3366300e-03
 7.4599670e+04 3.7383660e-07 4.0377600e-03
 1.4919930e+05 6.1755070e-07 4.6618800e-03
 2.4866550e+05 7.5453220e-07 5.5391900e-03
 3.4813180e+05 7.9159190e-07 6.6157300e-03
 4.4759790e+05 7.1744850e-07 8.4442200e-03
 5.4706420e+05 6.3724210e-07 1.0509600e-02
 6.4653040e+05 5.6560450e-07 1.2737100e-02
 7.4599660e+05 5.0639580e-07 1.5043900e-02
 8.4546290e+05 4.5929920e-07 1.7347800e-02
 9.4492910e+05 4.2143650e-07 1.9633200e-02
 1.0443950e+06 3.8207430e-07 2.2385200e-02
 1.1438620e+06 3.4700350e-07 2.5403900e-02
 1.2433280e+06 3.0890570e-07 2.9362500e-02
 1.3427940e+06 2.7219410e-07 3.4255400e-02
 1.4422600e+06 2.3980140e-07 3.9955800e-02
 1.5417260e+06 2.1263120e-07 4.6301900e-02
 1.6411930e+06 1.8657330e-07 5.4226200e-02
 1.7406590e+06 1.6451570e-07 6.3202400e-02
 1.8401250e+06 1.4391850e-07 7.4256600e-02
 1.9395910e+06 1.2846080e-07 8.5501200e-02
 2.0887900e+06 1.0454050e-07 1.1090500e-01
 2.2877230e+06 8.5113490e-08 1.4355500e-01
 2.4866560e+06 7.0246880e-08 1.8296700e-01
 2.6855880e+06 6.1538960e-08 2.1945700e-01
 2.8845200e+06 5.2957540e-08 2.6799900e-01
 3.0834530e+06 4.4889000e-08 3.3245100e-01
 3.2823850e+06 4.0269290e-08 3.8905200e-01
 3.4813180e+06 3.5599270e-08 4.5878700e-01
 3.6802500e+06 3.1560380e-08 5.3215300e-01
 3.8791830e+06 2.8689980e-08 5.9134300e-01
 4.2273140e+06 2.2112960e-08 7.3535300e-01
 4.7246450e+06 1.7636190e-08 8.4272100e-01
 5.2219770e+06 1.4714910e-08 9.1299200e-01
 5.7193080e+06 1.2698170e-08 9.5162100e-01
 6.2166390e+06 1.1023660e-08 9.7338000e-01
 6.7139700e+06 9.4079220e-09 9.8495700e-01
 7.2113010e+06 7.6834690e-09 9.9122600e-01
 7.7086320e+06 5.7712700e-09 9.9443200e-01
 8.2059630e+06 3.9524790e-09 9.9615200e-01
 8.7032940e+06 4.2182250e-09 9.9830100e-01
 9.2006250e+06 4.4826960e-09 9.9925300e-01
 9.6979560e+06 4.7333100e-09 1.0000000e+00
 1.0195290e+07 4.4194400e-15 1.0000000e+00
 1.0692620e+07 5.1685600e-19 1.0000000e+00
 1.1189950e+07 1.0000000e-19 1.0000000e+00
 1.1687280e+07 1.0000000e-19 1.0000000e+00
 1.2184610e+07 1.0000000e-19 1.0000000e+00


#           E1 2.0000000e+07  incident energy
#          NEP            58  number of secondary energy points
#           ND             0  number of discrete lines
#           NA             1  number of angular parameters
 0.0000000e+00 2.2992900e-09 5.0087400e-02
 1.4919930e+03 4.5312990e-09 3.5983000e-02
 3.4813180e+03 1.2942300e-08 2.0438800e-02
 7.4599660e+03 2.6269220e-08 1.4546000e-02
 1.4919930e+04 5.1196920e-08 1.0877300e-02
 3.4813180e+04 1.2408970e-07 7.6994600e-03
 7.4599670e+04 2.4957550e-07 6.4847300e-03
 1.4919930e+05 4.4741090e-07 6.9166400e-03
 2.4866550e+05 5.8154970e-07 7.7545600e-03
 3.4813180e+05 6.3944380e-07 8.8199300e-03
 4.4759790e+05 6.5778860e-07 9.8383700e-03
 5.4706420e+05 5.9797330e-07 1.1836800e-02
 6.4653040e+05 5.4128500e-07 1.3923700e-02
 7.4599660e+05 4.8017830e-07 1.6442700e-02
 8.4546290e+05 4.3871320e-07 1.8710300e-02
 9.4492910e+05 3.9338300e-07 2.1578600e-02
 1.0443950e+06 3.6257410e-07 2.4134700e-02
 1.1438620e+06 3.3224480e-07 2.7083900e-02
 1.2433280e+06 3.0345630e-07 3.0449800e-02
 1.3427940e+06 2.7973470e-07 3.3902300e-02
 1.4422600e+06 2.5591920e-07 3.8026700e-02
 1.5417260e+06 2.3523570e-07 4.2430300e-02
 1.6411930e+06 2.1766350e-07 4.7089000e-02
 1.7406590e+06 2.0016880e-07 5.2593700e-02
 1.8401250e+06 1.8404060e-07 5.8770800e-02
 1.9395910e+06 1.6852080e-07 6.5939900e-02
 2.0887900e+06 1.4165820e-07 8.2822600e-02
 2.2877230e+06 1.1676870e-07 1.0596300e-01
 2.4866560e+06 1.0025000e-07 1.2999100e-01
 2.6855880e+06 8.5917490e-08 1.5973200e-01
 2.8845200e+06 7.2831580e-08 1.9855700e-01
 3.0834530e+06 6.0790670e-08 2.5093000e-01
 3.2823850e+06 5.3128080e-08 3.0261100e-01
 3.4813180e+06 4.6602200e-08 3.6130500e-01
 3.6802500e+06 4.0563150e-08 4.2914400e-01
 3.8791830e+06 3.4730980e-08 5.0929900e-01
 4.2273140e+06 2.6315240e-08 6.5625700e-01
 4.7246450e+06 2.0641020e-08 7.8323500e-01
 5.2219770e+06 1.7128280e-08 8.8007500e-01
 5.7193080e+06 1.5066040e-08 9.3759700e-01
 6.2166390e+06 1.3700660e-08 9.6782200e-01
 6.7139700e+06 1.2588300e-08 9.8334200e-01
 7.2113010e+06 1.1513460e-08 9.9133300e-01
 7.7086320e+06 1.0384690e-08 9.9552700e-01
 8.2059630e+06 9.1651580e-09 9.9764600e-01
 8.7032940e+06 7.8263560e-09 9.9872800e-01
 9.2006250e+06 6.3424920e-09 9.9927000e-01
 9.6979560e+06 4.6977270e-09 9.9953900e-01
 1.0195290e+07 3.1555900e-09 9.9968400e-01
 1.0692620e+07 3.2911590e-09 9.9986200e-01
 1.1189950e+07 3.4179070e-09 9.9993900e-01
 1.1687280e+07 3.5402290e-09 1.0000000e+00
 1.2184610e+07 4.8308600e-16 1.0000000e+00
 1.2681940e+07 3.2275800e-19 1.0000000e+00
 1.3179270e+07 1.0000000e-19 1.0000000e+00
 1.3676610e+07 1.0000000e-19 1.0000000e+00
 1.4173940e+07 1.0000000e-19 1.0000000e+00
 1.4671270e+07 1.0000000e-19 1.0000000e+00


#           E1 2.2000000e+07  incident energy
#          NEP            62  number of secondary energy points
#           ND             0  number of discrete lines
#           NA             1  number of angular parameters
 0.0000000e+00 2.0598800e-09 5.2675300e-02
 1.4919930e+03 5.2270080e-09 3.2789200e-02
 3.4813180e+03 1.1589400e-08 2.3287900e-02
 7.4599660e+03 2.1460560e-08 1.7603800e-02
 1.4919930e+04 4.2066290e-08 1.3030400e-02
 3.4813180e+04 1.0143230e-07 9.3319000e-03
 7.4599670e+04 2.0915470e-07 7.9500700e-03
 1.4919930e+05 3.7925810e-07 8.4393000e-03
 2.4866550e+05 4.8708850e-07 9.6987200e-03
 3.4813180e+05 5.4877880e-07 1.0838400e-02
 4.4759790e+05 5.8749610e-07 1.1667100e-02
 5.4706420e+05 5.8265820e-07 1.2902700e-02
 6.4653040e+05 5.4002640e-07 1.4786100e-02
 7.4599660e+05 4.8749660e-07 1.7055400e-02
 8.4546290e+05 4.4836670e-07 1.9246000e-02
 9.4492910e+05 3.8776580e-07 2.2905300e-02
 1.0443950e+06 3.5491490e-07 2.5715500e-02
 1.1438620e+06 3.2703100e-07 2.8587000e-02
 1.2433280e+06 2.8581000e-07 3.3466400e-02
 1.3427940e+06 2.6867730e-07 3.6514200e-02
 1.4422600e+06 2.4554170e-07 4.0937100e-02
 1.5417260e+06 2.2425070e-07 4.5970000e-02
 1.6411930e+06 2.0887500e-07 5.0626000e-02
 1.7406590e+06 1.9093630e-07 5.6844700e-02
 1.8401250e+06 1.7815860e-07 6.2554500e-02
 1.9395910e+06 1.6532000e-07 6.9208500e-02
 2.0887900e+06 1.4424420e-07 8.3552700e-02
 2.2877230e+06 1.2524840e-07 1.0142100e-01
 2.4866560e+06 1.0794580e-07 1.2392300e-01
